7.948
7.948
7.936
7.944
7.952
7.92
7.92
7.936
7.948
7.956
7.932
7.928
7.956
7.94
7.928
7.96
7.96
7.964
7.924
7.948
7.98
7.964
7.932
7.944
7.96
7.956
7.948
7.928
7.932
7.932
7.94
7.916
7.932
7.932
7.932
7.92
7.924
7.94
7.936
7.924
7.928
7.944
7.932
7.908
7.896
7.924
7.92
7.9
7.912
7.92
7.928
7.892
7.896
7.908
7.92
7.884
7.908
7.92
7.932
7.908
7.884
7.872
7.888
7.908
7.9
7.936
7.968
8.004
7.972
8.012
8.088
8.112
8.096
8.032
8.06
8.04
7.988
7.944
7.984
7.94
7.932
7.92
7.94
7.936
7.884
7.892
7.876
7.896
7.932
7.888
7.916
7.936
7.896
7.892
7.92
7.9
7.812
7.74
7.856
8.14
8.604
9.26
9.928
10.584
11.08
11.188
11.116
10.236
8.884
7.916
7.572
7.48
7.588
7.72
7.832
7.956
8.02
7.984
7.98
7.976
7.964
7.984
7.976
7.968
8.004
7.996
7.976
7.972
7.98
7.996
7.996
8.004
8.012
8.028
8.008
8.004
8.028
8.04
8.044
8.04
8.052
8.096
8.072
8.056
8.072
8.096
8.12
8.116
8.124
8.156
8.16
8.156
8.18
8.208
8.24
8.264
8.296
8.316
8.344
8.364
8.416
8.464
8.492
8.548
8.56
8.604
8.656
8.7
8.716
8.764
8.8
8.816
8.82
8.772
8.792
8.76
8.676
8.608
8.576
8.488
8.472
8.356
8.336
8.264
8.22
8.144
8.128
8.092
8.088
8.028
8.048
8.024
8.036
8.004
7.992
8.008
8.012
8.024
8.004
8.02
7.992
7.996
7.98
8.036
8.032
8.028
8.012
8.032
8.04
8.008
7.992
8.008
8.032
8.04
8.008
8.02
8.028
8.016
7.98
8.016
8.028
8.048
8.008
8.012
8
8.004
7.988
7.976
7.996
8.016
8
7.992
7.996
8.012
7.976
7.992
7.964
8
8.004
7.992
7.988
7.996
8.004
7.984
7.964
8.004
7.992
7.98
7.964
7.976
7.988
7.988
7.96
7.98
8.004
7.952
7.968
7.98
7.98
7.976
7.944
7.976
7.98
7.964
7.948
7.984
8
8.008
8.052
8.064
8.084
8.12
8.16
8.172
8.176
8.12
8.064
8.056
8.088
8.048
8.028
8.004
8.028
7.996
7.98
7.936
7.992
7.988
7.98
7.952
7.976
7.976
7.964
7.956
7.96
7.996
7.98
7.928
7.824
7.872
8.072
8.388
8.928
9.62
10.244
10.852
11.16
11.272
10.892
9.696
8.416
7.716
7.496
7.568
7.716
7.828
7.956
8.068
8.044
8.016
8.052
8.048
8.028
8.02
8.036
8.024
8.024
8.02
8.04
8.056
8.032
8.048
8.06
8.056
8.06
8.056
8.084
8.096
8.088
8.06
8.076
8.092
8.132
8.108
8.1
8.132
8.136
8.124
8.16
8.168
8.192
8.192
8.204
8.24
8.284
8.276
8.296
8.336
8.356
8.368
8.388
8.456
8.5
8.516
8.544
8.6
8.668
8.692
8.716
8.76
8.82
8.828
8.856
8.844
8.864
8.86
8.84
8.784
8.748
8.672
8.58
8.508
8.476
8.38
8.34
8.276
8.252
8.228
8.176
8.116
8.112
8.076
8.08
8.072
8.064
8.076
8.052
8.044
8.024
8.036
8.052
8.052
8.028
8.056
8.052
8.04
8.044
8.008
8.056
8.06
8.052
8.048
8.064
8.048
8.028
8.04
8.044
8.056
8.036
8.032
8.044
8.052
8.02
8.012
8.024
8.016
8.012
8.036
8.036
8.032
8.008
8.024
8.036
8.048
8.016
7.984
8.004
8.032
8.024
7.988
7.996
8.012
8.016
8
8
7.992
8.008
7.964
7.992
7.988
7.98
7.976
7.984
8.012
8.012
8
7.976
7.988
8
7.996
7.968
7.996
7.992
7.992
7.956
7.976
7.976
8
7.992
7.96
7.98
7.96
7.952
7.976
8
8.044
8.056
8.056
8.1
8.132
8.176
8.136
8.132
8.1
8.088
8.036
8.048
8.012
8.016
7.988
7.98
7.976
7.976
7.956
7.964
7.984
7.976
7.94
7.944
7.968
7.936
7.948
7.956
7.976
7.94
7.868
7.756
7.88
8.176
8.628
9.336
9.976
10.644
11.1
11.18
11.06
10.196
8.844
7.912
7.568
7.488
7.576
7.708
7.812
7.964
8.032
7.992
7.992
7.984
7.96
7.976
7.972
8
8.012
8.008
8.008
7.992
8.02
8.012
7.976
7.996
8.012
8.024
8.028
8.032
8.048
8.048
8.024
8.032
8.06
8.056
8.08
8.088
8.088
8.088
8.088
8.1
8.108
8.152
8.152
8.12
8.16
8.188
8.216
8.208
8.268
8.32
8.324
8.332
8.372
8.42
8.448
8.48
8.54
8.588
8.624
8.656
8.696
8.736
8.748
8.764
8.78
8.784
8.784
8.736
8.696
8.624
8.552
8.488
8.428
8.36
8.336
8.252
8.188
8.152
8.104
8.06
8.02
8.008
7.992
7.984
7.984
7.96
7.96
7.984
7.948
7.948
7.964
7.98
7.976
7.944
7.944
7.952
7.948
7.916
7.96
7.972
7.984
7.96
7.956
7.972
7.968
7.948
7.948
7.972
7.984
7.964
7.916
7.944
7.96
7.968
7.944
7.968
7.972
7.94
7.936
7.96
7.952
7.92
7.936
7.944
7.94
7.956
7.936
7.944
7.948
7.952
7.936
7.96
7.936
7.944
7.92
7.908
7.912
7.912
7.932
7.916
7.944
7.928
7.932
7.924
7.908
7.92
7.92
7.908
7.936
7.92
7.932
7.904
7.928
7.932
7.924
7.908
7.916
7.92
7.904
7.916
7.912
7.96
7.96
7.996
7.996
8.052
8.088
8.108
8.076
8.08
8.052
8.032
8
7.996
7.992
7.976
7.936
7.924
7.932
7.928
7.916
7.892
7.928
7.936
7.904
7.9
7.932
7.94
7.92
7.924
7.92
7.916
7.824
7.744
7.796
8.12
8.564
9.252
9.912
10.568
11.064
11.164
11.108
10.264
8.872
7.936
7.588
7.496
7.604
7.72
7.828
7.948
8.012
8
7.96
7.984
7.976
7.98
7.968
7.972
7.996
7.968
8
8.008
8.016
8.004
7.988
7.984
8.028
8.024
8.04
8.032
8.056
8.06
8.044
8.044
8.068
8.072
8.068
8.072
8.1
8.088
8.112
8.092
8.116
8.156
8.176
8.188
8.192
8.216
8.248
8.256
8.268
8.324
8.364
8.352
8.42
8.46
8.492
8.508
8.536
8.616
8.644
8.676
8.728
8.772
8.784
8.8
8.788
8.82
8.792
8.744
8.704
8.628
8.576
8.512
8.444
8.392
8.328
8.28
8.216
8.172
8.144
8.12
8.068
8.052
8.048
8.04
8.032
7.996
7.984
7.996
8.004
7.988
7.992
8.032
8.012
7.992
8.004
8.016
8.024
7.968
8.008
8.012
8.02
8.016
8.02
8.032
8.02
8.012
7.996
8.024
8.016
8.036
8.008
8.016
8.02
8.016
8
8.008
8.012
8.028
8.012
7.992
8.004
8.004
8.008
7.98
7.996
8.004
7.996
7.996
7.988
7.98
7.98
7.992
7.996
7.968
7.996
8
7.984
7.98
7.976
7.976
7.992
7.996
7.988
7.98
7.988
7.976
7.996
7.948
7.984
8.012
8.004
7.968
7.976
7.96
8.004
7.984
7.96
8
8.008
8.008
7.968
7.968
7.976
7.98
7.976
8.016
8.088
8.088
8.08
8.124
8.18
8.144
8.12
8.092
8.1
8.06
8.064
8.04
8.02
8.008
7.984
7.98
7.976
7.98
7.972
7.976
7.964
7.98
7.968
7.972
7.98
8.008
7.988
7.988
7.976
7.916
7.8
7.9
8.184
8.628
9.248
9.856
10.52
11.076
11.208
11.184
10.4
9.048
8.032
7.612
7.504
7.636
7.764
7.9
8.004
8.064
8.056
8.024
8.004
8.016
8.036
8.008
8.032
8.032
8.056
8.044
8.044
8.024
8.048
8.036
8.028
8.032
8.076
8.064
8.076
8.056
8.068
8.064
8.084
8.072
8.096
8.124
8.112
8.096
8.12
8.148
8.14
8.164
8.168
8.188
8.2
8.224
8.236
8.268
8.32
8.3
8.348
8.372
8.42
8.436
8.456
8.516
8.556
8.616
8.628
8.7
8.748
8.764
8.768
8.812
8.836
8.848
8.824
8.82
8.796
8.744
8.676
8.608
8.524
8.468
8.416
8.36
8.284
8.232
8.188
8.108
8.12
8.08
8.064
8.028
8.048
8.028
8.028
8.004
7.992
8.012
7.988
7.976
7.976
7.996
7.992
7.996
7.992
8.004
8.008
8.012
8.008
8.004
8.016
8
8.004
8.004
8.012
8.004
7.984
8.004
7.996
7.992
7.996
8.004
7.976
7.972
7.992
7.992
8.028
7.992
7.98
7.964
7.976
7.964
7.964
7.948
7.98
7.96
7.972
7.928
7.968
7.968
7.976
7.96
7.936
7.956
7.96
7.952
7.968
7.956
7.952
7.988
7.992
7.988
7.952
7.912
7.924
7.944
7.952
7.936
7.94
7.944
7.92
7.9
7.9
7.892
7.908
7.924
7.916
7.904
7.924
7.916
7.916
7.92
7.932
7.924
7.896
7.884
7.904
7.92
7.904
7.952
7.98
7.988
8.028
8.024
8.072
8.088
8.08
8.048
8.02
7.992
7.988
7.972
7.96
7.932
7.912
7.896
7.88
7.908
7.912
7.9
7.892
7.92
7.88
7.876
7.868
7.916
7.892
7.904
7.88
7.856
7.728
7.704
7.904
8.284
8.96
9.712
10.32
10.916
11.136
11.128
10.54
9.24
8.164
7.664
7.496
7.488
7.644
7.752
7.848
7.932
7.972
7.972
7.96
7.936
7.948
7.952
7.944
7.948
7.956
7.98
7.956
7.972
7.964
7.98
7.976
7.952
7.992
8.008
7.988
8.004
7.996
8.028
8.028
8.024
8.032
8.04
8.04
8.048
8.032
8.056
8.064
8.076
8.088
8.104
8.136
8.144
8.16
8.168
8.2
8.22
8.228
8.268
8.304
8.316
8.364
8.388
8.444
8.492
8.504
8.536
8.588
8.636
8.636
8.66
8.736
8.712
8.724
8.704
8.7
8.684
8.632
8.564
8.496
8.452
8.344
8.288
8.232
8.212
8.128
8.096
8.068
8.036
8.028
7.992
7.98
7.964
7.972
7.952
7.916
7.936
7.928
7.912
7.896
7.928
7.932
7.932
7.924
7.904
7.928
7.916
7.932
7.96
7.932
7.92
7.904
7.924
7.928
7.936
7.92
7.924
7.96
7.956
7.94
7.928
7.928
7.9
7.924
7.932
7.948
7.928
7.908
7.908
7.928
7.924
7.896
7.888
7.912
7.92
7.9
7.904
7.888
7.896
7.892
7.888
7.896
7.908
7.908
7.884
7.88
7.88
7.908
7.88
7.876
7.88
7.884
7.872
7.884
7.908
7.96
7.976
7.976
8
8.072
8.092
8.076
8.044
8.008
7.996
7.96
7.94
7.94
7.924
7.888
7.868
7.872
7.9
7.864
7.856
7.876
7.864
7.876
7.872
7.868
7.888
7.88
7.892
7.884
7.888
7.804
7.68
7.676
7.916
8.3
8.98
9.7
10.364
10.92
11.112
11.132
10.516
9.192
8.16
7.74
7.584
7.596
7.684
7.788
7.88
7.952
7.94
7.952
7.94
7.96
7.952
7.924
7.944
7.952
7.92
7.936
7.94
7.98
7.968
7.94
7.932
7.972
7.972
7.984
7.984
7.996
8
8.004
8.016
8.012
8.028
8.02
8.028
8.056
8.076
8.06
8.068
8.068
8.108
8.12
8.12
8.144
8.184
8.216
8.184
8.22
8.256
8.28
8.312
8.348
8.388
8.424
8.46
8.496
8.54
8.592
8.624
8.668
8.7
8.712
8.716
8.716
8.728
8.72
8.684
8.604
8.556
8.5
8.448
8.392
8.3
8.248
8.22
8.148
8.124
8.072
8.072
8.02
7.996
8
7.992
7.972
7.964
7.972
7.976
7.96
7.948
7.972
7.956
7.98
7.976
7.968
7.972
7.98
7.984
7.956
7.968
7.992
7.992
7.988
8
7.992
7.972
7.98
7.96
8.012
8.016
8
7.98
8.008
7.984
7.988
7.988
7.988
8
8
7.984
7.992
7.984
7.98
7.972
7.968
7.988
7.984
7.98
7.976
7.976
7.972
7.968
7.96
7.972
7.964
7.988
7.984
7.972
7.932
7.964
7.96
7.968
7.98
7.988
7.996
7.98
8.024
8.024
8.024
8.028
8.06
8.08
8.14
8.164
8.2
8.192
8.164
8.104
8.096
8.08
8.056
8.032
8.032
8.012
7.988
7.972
7.976
7.956
7.96
7.936
7.976
7.968
7.944
7.948
7.96
7.972
7.96
7.944
7.96
7.948
7.852
7.796
7.916
8.232
8.676
9.264
9.9
10.536
11.08
11.204
11.16
10.328
8.952
7.988
7.604
7.544
7.688
7.772
7.896
8.016
8.048
8.024
7.984
8
7.996
8.008
7.976
8.004
8.02
8.008
8
7.984
8.004
8.008
7.988
8.024
8.016
8.056
8.036
8.04
8.052
8.06
8.04
8.068
8.056
8.092
8.096
8.096
8.104
8.124
8.104
8.112
8.148
8.188
8.184
8.172
8.212
8.228
8.232
8.244
8.272
8.344
8.356
8.396
8.424
8.476
8.512
8.544
8.568
8.64
8.696
8.704
8.74
8.76
8.816
8.816
8.796
8.804
8.78
8.728
8.656
8.588
8.552
8.468
8.408
8.344
8.292
8.236
8.176
8.124
8.092
8.072
8.044
8.016
8.024
8.016
7.992
7.964
7.992
7.988
7.976
7.984
7.984
8
7.984
7.996
7.996
8.008
7.996
7.98
7.976
7.992
8.012
8.008
8
7.984
8.012
8.008
7.988
8.004
7.992
8.008
7.992
7.976
7.992
7.992
7.988
8.004
8.028
7.988
7.976
7.984
7.992
8
7.988
8.008
7.996
7.996
7.972
7.984
7.992
7.988
7.992
7.972
7.996
8.02
8.02
8.02
8.048
8.072
8.052
8.052
8.116
8.184
8.212
8.2
8.172
8.128
8.092
8.084
8.048
8.032
8.008
8.008
7.976
7.944
7.928
7.924
7.936
7.944
7.948
7.936
7.908
7.94
7.936
7.94
7.928
7.94
7.956
7.92
7.904
7.82
7.788
7.908
8.204
8.684
9.364
10
10.644
11.1
11.228
11.096
10.108
8.732
7.86
7.516
7.464
7.588
7.724
7.876
7.972
8.016
7.992
7.976
7.98
7.968
7.964
7.988
7.972
7.992
7.988
8.012
7.988
7.984
7.976
7.992
8.008
8.02
8.02
8.02
8.036
8.04
8.012
8.048
8.072
8.076
8.076
8.092
8.08
8.092
8.108
8.12
8.132
8.152
8.152
8.156
8.212
8.216
8.232
8.248
8.28
8.312
8.32
8.356
8.416
8.448
8.472
8.496
8.54
8.6
8.644
8.66
8.68
8.732
8.752
8.76
8.784
8.784
8.776
8.724
8.66
8.62
8.556
8.468
8.416
8.364
8.312
8.256
8.192
8.132
8.092
8.072
8.056
8.02
8.02
7.988
7.992
7.976
7.98
7.972
7.96
7.96
7.968
7.976
7.956
7.952
7.948
7.952
7.956
7.968
7.964
7.984
7.96
7.98
7.964
7.964
7.956
7.956
7.952
7.968
7.964
7.936
7.96
7.948
7.968
7.952
7.944
7.956
7.952
7.952
7.936
7.96
7.924
7.928
7.932
7.94
7.948
7.9
7.92
7.928
7.92
7.924
7.92
7.92
7.932
7.948
7.912
7.944
7.952
7.96
7.956
7.956
7.996
8.016
7.976
8.008
8.056
8.096
8.112
8.156
8.144
8.096
8.048
8.008
8.008
7.98
7.952
7.936
7.9
7.936
7.868
7.86
7.884
7.864
7.884
7.876
7.884
7.86
7.884
7.84
7.868
7.88
7.86
7.86
7.844
7.776
7.672
7.728
8.004
8.42
9.168
9.824
10.476
11.016
11.128
11.06
10.248
8.884
7.924
7.552
7.38
7.464
7.612
7.724
7.828
7.904
7.892
7.904
7.88
7.88
7.904
7.896
7.872
7.896
7.872
7.896
7.888
7.924
7.904
7.936
7.928
7.912
7.908
7.92
7.92
7.916
7.936
7.948
7.956
7.952
7.932
7.984
7.972
7.976
8
8.008
8.02
8.016
8.032
8.04
8.076
8.088
8.104
8.128
8.14
8.184
8.176
8.224
8.26
8.296
8.328
8.376
8.412
8.428
8.468
8.496
8.564
8.58
8.6
8.648
8.664
8.684
8.648
8.6
8.56
8.508
8.444
8.38
8.344
8.268
8.216
8.156
8.108
8.068
8.036
7.96
7.956
7.948
7.904
7.896
7.904
7.888
7.86
7.864
7.88
7.856
7.88
7.86
7.852
7.876
7.864
7.864
7.86
7.876
7.896
7.868
7.828
7.86
7.872
7.868
7.868
7.864
7.88
7.884
7.856
7.86
7.872
7.884
7.856
7.848
7.852
7.844
7.848
7.84
7.856
7.86
7.86
7.856
7.832
7.844
7.836
7.824
7.816
7.812
7.84
7.832
7.836
7.86
7.848
7.832
7.84
7.856
7.884
7.904
7.92
7.924
7.936
8
8.008
8.048
8.048
8.012
7.996
7.96
7.956
7.896
7.856
7.86
7.868
7.824
7.812
7.812
7.812
7.784
7.788
7.788
7.8
7.804
7.8
7.792
7.8
7.792
7.796
7.78
7.788
7.784
7.68
7.596
7.664
7.968
8.452
9.204
9.868
10.504
10.976
11.044
10.912
9.94
8.616
7.808
7.552
7.476
7.532
7.648
7.728
7.844
7.864
7.872
7.86
7.856
7.848
7.864
7.856
7.86
7.848
7.86
7.844
7.884
7.892
7.88
7.888
7.896
7.9
7.912
7.912
7.9
7.92
7.936
7.924
7.928
7.964
7.948
7.968
7.964
7.992
8.02
8.012
8
8.028
8.052
8.064
8.06
8.084
8.132
8.128
8.152
8.188
8.228
8.24
8.28
8.324
8.36
8.408
8.416
8.436
8.484
8.528
8.544
8.58
8.62
8.652
8.656
8.632
8.616
8.576
8.512
8.456
8.396
8.348
8.288
8.236
8.176
8.12
8.1
8.04
8
8
7.984
7.952
7.932
7.908
7.912
7.908
7.916
7.932
7.924
7.9
7.904
7.904
7.92
7.912
7.904
7.916
7.936
7.94
7.908
7.92
7.92
7.932
7.916
7.924
7.924
7.932
7.936
7.916
7.936
7.924
7.936
7.916
7.932
7.948
7.944
7.912
7.928
7.92
7.912
7.924
7.948
7.912
7.94
7.896
7.912
7.916
7.924
7.9
7.916
7.936
7.924
7.896
7.904
7.932
7.956
7.932
7.976
7.992
7.992
7.984
7.976
8.036
8.08
8.12
8.136
8.104
8.116
8.032
8.008
7.988
7.984
7.944
7.952
7.952
7.936
7.888
7.868
7.86
7.868
7.872
7.884
7.868
7.876
7.864
7.844
7.832
7.848
7.88
7.872
7.844
7.82
7.748
7.72
7.888
8.212
8.764
9.4
10
10.648
11.052
11.144
10.86
9.776
8.452
7.756
7.48
7.512
7.664
7.744
7.852
7.928
7.932
7.908
7.904
7.892
7.892
7.908
7.888
7.872
7.88
7.9
7.904
7.9
7.92
7.924
7.948
7.916
7.924
7.948
7.952
7.96
7.956
7.98
7.988
7.956
7.988
7.984
8.024
8.044
8.012
8.028
8.052
8.064
8.064
8.068
8.108
8.124
8.144
8.172
8.156
8.216
8.216
8.256
8.296
8.336
8.376
8.4
8.468
8.504
8.532
8.564
8.592
8.648
8.688
8.716
8.724
8.748
8.732
8.668
8.66
8.584
8.532
8.48
8.404
8.36
8.3
8.224
8.176
8.124
8.1
8.056
8.044
8.016
7.988
7.968
7.96
7.964
7.944
7.948
7.936
7.948
7.96
7.936
7.952
7.948
7.976
7.96
7.972
7.96
7.948
7.94
7.932
7.952
7.964
7.972
7.984
7.96
7.968
7.984
7.968
7.948
7.948
7.968
7.964
7.96
7.94
7.96
7.956
7.948
7.96
7.956
7.964
7.94
7.944
7.944
7.956
7.924
7.932
7.96
7.98
7.964
7.932
7.944
7.96
7.944
7.94
7.96
7.984
7.96
7.952
7.944
7.964
7.956
7.936
7.936
7.952
7.972
7.948
7.964
7.98
7.988
7.984
7.992
8.036
8.06
8.056
8.028
8.08
8.128
8.164
8.188
8.18
8.184
8.096
8.06
8.06
8.072
8.024
8.024
8.024
8.012
7.936
7.948
7.964
7.976
7.948
7.936
7.932
7.96
7.988
7.984
7.988
7.988
7.956
7.956
7.896
7.904
7.836
7.836
8.016
8.284
8.868
9.468
10.16
10.784
11.2
11.264
10.964
9.8
8.46
7.808
7.464
7.528
7.716
7.824
7.88
7.976
8.028
8.004
7.988
7.98
8.004
8.004
8.016
8
7.988
8.02
7.988
8.012
8.028
8.056
8.064
8.052
8.024
8.036
8.072
8.06
8.068
8.088
8.088
8.08
8.096
8.128
8.16
8.196
8.188
8.208
8.188
8.184
8.108
8.124
8.188
8.224
8.264
8.256
8.324
8.404
8.392
8.368
8.36
8.384
8.444
8.512
8.54
8.628
8.66
8.656
8.72
8.772
8.744
8.732
8.816
8.848
8.836
8.82
8.768
8.74
8.676
8.608
8.552
8.472
8.404
8.356
8.308
8.316
8.384
8.28
8.124
8.064
8.004
8.152
8.144
7.984
7.956
8.068
8.076
8.152
8.06
7.836
7.992
8.06
8.008
7.964
7.984
7.98
8.088
7.972
7.968
8.048
8.08
8.056
8.136
8.056
7.92
7.992
8.076
8.068
8.148
8.128
8.036
8.004
7.844
7.816
7.932
8.016
8.06
8.064
8.028
7.892
7.864
7.936
7.968
7.96
7.96
8.04
8.104
8.052
7.952
7.88
7.896
7.964
8
8.04
8.072
8.048
7.972
7.92
7.94
7.868
7.94
7.972
7.988
7.948
7.936
8.004
8.004
7.936
7.96
7.936
7.956
8
7.988
7.976
8.072
7.872
7.88
7.92
7.976
7.98
7.988
7.984
8
7.992
7.912
7.9
7.92
7.984
7.98
7.98
8.048
8.012
7.952
7.964
8.008
8.06
8.052
8.008
8.108
8.064
8.056
8.112
8.16
8.212
8.2
8.148
8.096
8.124
8.14
8.088
7.996
7.996
7.984
7.976
7.964
7.988
8.004
7.992
7.932
7.964
7.932
7.928
7.98
7.984
8.008
7.94
7.904
7.856
7.852
7.772
7.796
7.98
8.36
9.06
9.712
10.324
10.944
11.152
11.16
10.564
9.3
8.216
7.752
7.556
7.6
7.704
7.86
7.996
8.028
7.952
7.944
7.968
7.972
7.984
7.988
7.984
7.988
8.044
8.012
7.984
7.96
7.976
8.044
8.056
8.044
8.044
8.004
8.028
7.984
8.02
8.092
8.1
8.052
8.012
8.076
8.108
8.048
8.08
8.132
8.084
8.124
8.16
8.188
8.14
8.188
8.188
8.252
8.264
8.28
8.276
8.316
8.348
8.324
8.392
8.404
8.492
8.556
8.548
8.592
8.648
8.664
8.7
8.704
8.756
8.756
8.764
8.828
8.832
8.632
8.628
8.536
8.484
8.468
8.444
8.344
8.268
8.224
8.18
8.132
8.128
8.132
8.148
8.084
8.04
8.024
7.984
8.02
8.032
7.928
8.044
7.988
7.964
7.964
7.996
7.968
7.98
8.004
8.036
8.04
8.004
7.988
7.984
8.008
8.016
8.028
8.004
8.036
8.044
8.02
7.996
7.992
7.984
8.048
8.064
7.976
7.944
7.972
7.964
8.016
8.016
8.004
8.02
8.028
7.996
7.936
7.984
8.028
7.972
7.976
8.008
8.04
7.968
7.92
7.94
7.928
7.972
7.972
7.984
7.984
8.02
8.012
7.976
7.984
8.004
8.044
8.028
8.044
8.104
8.152
8.196
8.212
8.228
8.18
8.032
8.024
8.112
8.116
8.02
7.996
8.032
8.048
7.972
7.888
7.916
7.956
7.948
7.928
7.98
7.98
7.968
7.964
7.98
7.964
7.964
7.94
7.912
7.932
7.88
7.756
7.84
8.104
8.672
9.384
9.996
10.624
11.064
11.176
11.004
10.004
8.796
8.024
7.732
7.664
7.632
7.804
7.896
8.016
8.104
8.044
7.944
7.96
7.964
7.996
8
8
7.948
8.012
8.04
8.016
8.004
7.996
7.988
8.016
8.048
8.028
8.084
8.028
8.04
8.08
8.116
8.068
8.048
8.088
8.124
8.084
8.064
8.148
8.18
8.176
8.136
8.176
8.132
8.192
8.228
8.256
8.236
8.272
8.356
8.392
8.424
8.444
8.392
8.404
8.492
8.552
8.572
8.676
8.736
8.756
8.728
8.692
8.76
8.808
8.812
8.824
8.784
8.628
8.528
8.532
8.5
8.48
8.4
8.324
8.256
8.22
8.188
8.108
8.096
8.132
8.132
8.1
7.98
7.992
8.028
8.036
8.044
8.02
8.02
8.004
8.008
8.04
8.06
8.088
7.988
7.952
7.984
8.064
8.064
8.104
8.072
8.044
7.98
8.028
8.036
8.092
8.076
8.032
8.02
8.024
7.996
8.036
8.08
8.088
8.072
8.1
8.06
8.056
8.012
8.028
8.068
8.12
8.132
8.1
8.072
8.012
7.992
8.056
8.04
8.02
8.056
8.004
8.036
8.052
8.04
8.092
8.096
8.124
8.088
8.08
8.104
8.14
8.18
8.204
8.124
8.196
8.268
8.276
8.18
8.192
8.132
8.076
8.076
8.06
8.092
8.084
8.032
8.008
8.004
8.02
8
8.004
8.04
8.088
8.036
7.976
7.992
7.968
8.012
8.028
8.092
8.068
7.888
7.796
7.916
8.24
8.788
9.472
10.14
10.736
11.228
11.292
11.084
10.092
8.828
8.016
7.768
7.76
7.86
7.916
7.932
8.06
8.116
8.116
8.148
8.14
8.108
7.996
8.004
8.06
8.116
8.136
8.108
8.092
8.08
8.032
8.052
8.108
8.176
8.176
8.132
8.036
8.172
8.128
8.132
8.12
8.156
8.204
8.148
8.176
8.208
8.22
8.112
8.152
8.208
8.26
8.284
8.304
8.288
8.34
8.34
8.284
8.404
8.464
8.52
8.548
8.48
8.564
8.572
8.64
8.66
8.772
8.776
8.728
8.816
8.844
8.912
8.948
8.856
8.776
8.772
8.74
8.688
8.624
8.62
8.544
8.48
8.44
8.356
8.268
8.136
8.152
8.192
8.224
8.188
8.144
8.104
8.12
8.088
8.072
8.076
8.1
8.06
8.088
8.108
8.128
8.104
8.108
8.16
8.172
8.116
8.112
8.116
8.108
8.012
8.052
8.108
8.152
8.188
8.136
8.044
8.132
8.148
8.14
8.104
8.088
8.116
8.092
8.096
8.104
8.12
8.104
8.096
8.1
8.144
8.108
8.104
8.104
8.12
8.124
8.088
8.12
8.148
8.06
8.076
8.044
8.084
8.088
8.068
8.064
8.092
8.1
8.128
8.108
8.124
8.104
8.076
8.116
8.072
8.092
8.164
8.208
8.192
8.124
8.172
8.152
8.188
8.284
8.308
8.332
8.272
8.144
8.176
8.172
8.188
8.196
8.188
8.104
8.048
8.048
8.056
8.084
8.064
8.116
8.156
7.952
8.012
8.076
8.056
8.02
8.06
8.072
8.116
8.108
8.008
7.876
7.964
8.196
8.464
9.096
9.776
10.388
10.984
11.296
11.344
10.804
9.576
8.388
7.896
7.732
7.744
7.848
8
8.104
8.18
8.108
8.172
8.136
8.136
8.108
8.036
8.056
8.12
8.14
8.12
8.12
8.072
8.088
8.112
8.112
8.16
8.168
8.172
8.172
8.192
8.168
8.152
8.14
8.156
8.192
8.204
8.256
8.268
8.216
8.168
8.176
8.26
8.316
8.292
8.292
8.244
8.324
8.344
8.364
8.376
8.448
8.472
8.5
8.58
8.616
8.596
8.596
8.66
8.736
8.776
8.764
8.868
8.86
8.868
8.916
8.888
8.924
8.984
8.94
8.852
8.624
8.596
8.576
8.532
8.484
8.44
8.392
8.284
8.24
8.28
8.248
8.236
8.164
8.124
8.104
8.112
8.152
8.164
8.2
8.212
8.148
8.064
8.092
8.092
8.124
8.096
8.18
8.156
8.152
8.152
8.168
8.168
8.072
8.148
8.132
8.112
8.096
8.052
8.088
8.132
8.12
8.092
8.14
8.188
8.156
8.044
8.144
8.144
8.088
8.14
8.164
8.196
8.128
8.092
8.06
8.112
8.116
8.124
8.124
8.092
8.116
8.148
8.068
8.172
8.056
8.064
8.128
8.16
8.04
8.06
8.068
8.136
8.14
8.064
8.06
8.084
8.112
8.14
8.14
8.096
8.144
8.168
8.096
8.132
8.2
8.196
8.184
8.236
8.324
8.336
8.324
8.284
8.224
8.188
8.16
8.144
8.14
8.152
8.148
8.108
8.088
8.088
8.128
8.132
8.144
8.064
8.024
8.004
8.044
8.092
8.132
8.184
8.156
8.008
8.016
8.004
7.896
7.944
8.2
8.552
9.216
9.892
10.56
11.14
11.296
11.256
10.628
9.336
8.28
7.848
7.772
7.792
7.856
7.976
8.08
8.1
8.108
8.1
8.096
8.12
8.1
8.128
8.148
8.16
8.132
8.172
8.152
8.08
8.104
8.144
8.152
8.112
8.116
8.148
8.204
8.148
8.156
8.212
8.156
8.172
8.18
8.156
8.192
8.24
8.244
8.244
8.268
8.336
8.308
8.212
8.28
8.288
8.312
8.328
8.372
8.44
8.504
8.508
8.46
8.508
8.576
8.604
8.652
8.696
8.756
8.74
8.812
8.852
8.872
8.924
8.948
8.924
8.9
8.864
8.828
8.768
8.72
8.7
8.624
8.46
8.384
8.432
8.396
8.36
8.276
8.252
8.228
8.116
8.06
8.136
8.2
8.18
8.124
8.068
8.096
8.076
8.104
8.132
8.088
8.16
8.116
8.04
8.064
8.1
8.12
8.152
8.192
8.144
8.052
8.044
8.128
8.124
8.116
8.076
8.116
8.088
8.096
8.188
8.128
8.084
8.044
8.048
8.108
8.108
8.088
8.1
8.116
8.112
8.104
8.104
8.1
8.1
8.112
8.124
8.096
8.088
8.064
8.08
8.088
8.144
8.128
8.056
8.088
8.048
8.008
8.04
8.04
8.016
8.056
8.072
8.08
8.108
8.06
8.06
8.056
8.1
8.148
8.14
8.16
8.188
8.232
8.22
8.236
8.256
8.26
8.188
8.16
8.16
8.16
8.12
8.092
8.116
8.136
8.14
8.072
7.98
7.992
8.028
8.04
8.004
8
8.024
8
8
8.028
8.02
8.028
7.996
8.028
7.9
7.844
8.08
8.38
9.04
9.716
10.36
10.972
11.24
11.288
10.756
9.524
8.356
7.848
7.632
7.672
7.828
7.964
8.024
8.04
8.06
8.092
8.132
8.096
8.04
8.024
8.048
8.088
8.108
8.008
8.024
8.048
8.064
8.108
8.128
8.092
8.092
8.136
8.144
8.12
8.108
8.16
8.12
8.116
8.128
8.176
8.144
8.168
8.116
8.192
8.164
8.14
8.224
8.256
8.252
8.22
8.232
8.324
8.416
8.408
8.356
8.336
8.408
8.464
8.532
8.62
8.688
8.676
8.596
8.648
8.732
8.8
8.848
8.864
8.812
8.844
8.86
8.764
8.772
8.808
8.8
8.664
8.384
8.356
8.38
8.308
8.256
8.26
8.26
8.228
8.232
8.148
8.108
8.132
8.104
7.856
7.92
7.964
7.996
8.036
8.072
8.104
8.044
8.016
7.976
8.132
8.148
8.128
8.088
7.9
7.832
7.828
7.976
7.972
7.98
7.972
8.052
8.064
8.036
7.992
8.124
8.008
7.912
7.976
7.94
7.948
7.972
7.9
7.964
8.028
8.06
8.12
8.164
8.016
7.824
7.88
7.948
8.012
8.02
8.016
7.976
7.916
7.964
7.988
7.968
7.972
8.024
7.936
7.92
8.044
8
8.064
7.98
8.036
8.06
8.016
8.044
8.12
8.172
8.212
8.188
8.136
8.14
8.092
8.056
8.072
8.064
8.1
8.044
8.02
7.976
7.96
7.968
7.88
7.972
8.02
8.04
7.924
7.9
7.948
7.932
7.896
7.916
7.988
7.984
7.888
7.844
7.808
7.744
7.84
8.18
8.732
9.496
10.116
10.624
11.044
11.072
10.948
9.884
8.576
7.824
7.632
7.572
7.676
7.692
7.784
7.944
7.992
7.992
8
7.932
7.936
7.884
7.9
8.028
7.98
7.888
7.892
7.86
7.884
7.964
8.004
8.044
7.948
7.868
7.964
7.948
7.992
8.008
8.068
8.096
8.1
8.104
8.076
8.084
8
7.996
8.076
8.064
8.072
8.072
8.156
8.16
8.076
8.048
8.176
8.228
8.276
8.244
8.376
8.468
8.492
8.392
8.388
8.452
8.492
8.588
8.66
8.716
8.812
8.828
8.804
8.74
8.74
8.636
8.532
8.58
8.612
8.572
8.48
8.448
8.324
8.26
8.144
8.128
8.1
8.136
8.056
8.048
7.964
7.96
7.992
7.996
8.016
7.992
7.984
7.96
8.012
8.088
8.06
8.004
8.084
8.216
8.232
8.036
7.98
7.884
7.832
7.796
7.932
7.94
7.88
7.936
7.928
7.944
7.984
8.008
7.992
7.972
7.988
7.992
7.996
8.16
8.192
8.276
8.064
8.028
8.208
8.248
8
7.84
7.824
8.02
8.108
8.012
7.856
7.764
7.736
7.856
7.948
8.04
8.056
8.06
8.144
8.104
8.02
7.996
8.156
8.288
8.32
8.276
8.168
8.16
8.136
8.172
8.16
8.148
7.956
7.8
7.804
7.848
7.892
7.932
7.98
8.032
7.98
7.888
7.848
7.908
8.008
7.996
8.052
8.04
7.92
7.964
7.976
7.764
7.66
7.652
7.792
8.148
8.66
9.4
10.048
10.672
11.104
11.18
10.936
9.996
8.72
7.928
7.712
7.668
7.796
7.812
7.904
7.976
8.02
8.056
8.04
8.028
8.028
8.032
7.924
7.912
7.956
8.008
8.032
8.02
8.044
7.996
8.036
8.048
8.036
8.096
8.092
8.156
8.08
8.08
8.04
8.012
8.036
8.096
8.128
8.12
8.12
8.144
8.172
8.148
8.148
8.18
8.228
8.248
8.28
8.26
8.3
8.304
8.312
8.34
8.392
8.432
8.448
8.476
8.52
8.56
8.612
8.624
8.656
8.696
8.732
8.712
8.744
8.768
8.728
8.712
8.66
8.608
8.552
8.48
8.416
8.368
8.264
8.22
8.18
8.164
8.116
8.084
8.044
8.02
7.984
7.968
7.976
7.98
7.98
7.952
7.924
7.932
7.96
7.964
7.972
7.976
7.992
7.972
7.956
7.956
7.98
7.984
7.972
7.976
8.004
7.976
7.984
7.988
7.988
7.988
7.996
7.972
7.992
7.988
7.952
7.976
7.988
7.972
8.008
8.004
8.012
8.008
7.98
7.984
7.98
7.984
7.964
8
7.996
7.98
8.008
7.984
7.988
8.004
8.028
8.024
8.04
8.016
8.008
8
8.064
8.128
8.176
8.156
8.152
8.064
8.064
8.02
8.044
8.024
8.08
8.116
7.976
8.032
8.016
7.896
7.764
7.808
7.84
7.868
7.896
8.008
8.072
8.084
8.016
7.972
8.028
8.076
8.068
7.972
7.8
7.956
8.32
8.804
9.464
10.084
10.68
11.136
11.228
11.072
10.096
8.724
7.94
7.716
7.692
7.772
7.824
7.94
8.032
8.036
8.048
8.024
8.032
8.04
8.036
8.024
8.04
8.064
8.056
8.06
8.056
8.056
8.056
8.064
8.088
8.08
8.072
8.092
8.124
8.132
8.12
8.124
8.144
8.136
8.144
8.144
8.164
8.18
8.192
8.212
8.22
8.248
8.24
8.236
8.276
8.284
8.32
8.328
8.356
8.372
8.424
8.456
8.48
8.528
8.556
8.604
8.628
8.66
8.732
8.768
8.768
8.796
8.868
8.864
8.864
8.816
8.8
8.756
8.68
8.628
8.588
8.5
8.436
8.38
8.348
8.256
8.196
8.168
8.152
8.152
8.088
8.084
8.072
8.076
8.056
8.044
8.068
8.084
8.048
8.064
8.052
8.04
8.048
8.036
8.052
8.076
8.056
8.056
8.064
8.076
8.052
8.06
8.06
8.072
8.068
8.06
8.052
8.052
8.052
8.036
8.036
8.036
8.064
8.036
8.044
8.052
8.048
8.036
8.028
8.06
8.04
8.048
8.04
8.04
8.032
8.056
8.056
8.056
8.072
8.104
8.124
8.108
8.12
8.136
8.192
8.232
8.264
8.272
8.244
8.164
8.156
8.144
8.076
8.048
8.072
8.072
8.028
8.004
7.972
7.972
7.936
7.956
7.972
7.98
7.996
7.98
7.964
7.968
7.98
7.96
7.956
7.988
7.968
7.88
7.792
7.892
8.176
8.616
9.308
9.96
10.592
11.096
11.156
11.052
10.184
8.888
7.928
7.624
7.516
7.632
7.736
7.872
7.976
8.04
8.016
7.996
8.016
8.02
7.996
8.004
7.996
8.012
7.996
7.996
8.012
8.008
8.02
8.016
8.004
8.004
7.992
7.996
8.036
8.044
8.064
8.036
8.048
8.068
8.06
8.08
8.088
8.08
8.132
8.096
8.1
8.108
8.16
8.184
8.192
8.212
8.24
8.252
8.232
8.284
8.308
8.352
8.356
8.428
8.456
8.476
8.512
8.568
8.616
8.628
8.676
8.728
8.72
8.772
8.736
8.712
8.692
8.632
8.592
8.512
8.488
8.44
8.356
8.296
8.236
8.184
8.136
8.06
8.048
8.032
8.012
7.98
7.972
7.952
7.972
7.956
7.928
7.952
7.968
7.94
7.944
7.956
7.944
7.932
7.94
7.944
7.976
7.936
7.908
7.936
7.94
7.936
7.948
7.94
7.944
7.944
7.916
7.924
7.936
7.928
7.936
7.932
7.944
7.932
7.924
7.912
7.944
7.94
7.928
7.94
7.948
7.96
7.956
7.968
7.98
8.012
8.04
8.056
8.116
8.152
8.168
8.156
8.16
8.12
8.112
8.072
8.044
8.02
8
7.944
7.916
7.916
7.896
7.912
7.888
7.908
7.888
7.9
7.876
7.896
7.892
7.896
7.892
7.92
7.92
7.904
7.892
7.84
7.724
7.692
7.844
8.196
8.828
9.556
10.192
10.784
11.092
11.12
10.704
9.476
8.328
7.76
7.584
7.556
7.652
7.784
7.872
7.948
7.992
7.944
7.924
7.916
7.912
7.936
7.932
7.944
7.948
7.944
7.948
7.924
7.944
7.96
7.972
7.968
7.96
8
7.992
7.98
8.004
7.984
8.004
8.012
8.028
8.028
8.036
8.056
8.048
8.076
8.104
8.124
8.116
8.148
8.148
8.18
8.172
8.188
8.236
8.272
8.26
8.316
8.36
8.384
8.42
8.456
8.504
8.536
8.564
8.596
8.628
8.652
8.664
8.704
8.68
8.688
8.688
8.62
8.564
8.528
8.46
8.372
8.328
8.3
8.236
8.184
8.136
8.112
8.088
8.036
8
7.988
8
7.98
7.976
7.968
7.996
7.98
7.956
7.972
7.956
7.976
7.972
7.968
7.992
7.98
7.98
7.972
7.996
7.984
7.972
7.968
7.98
7.996
7.964
7.964
7.98
8
7.988
7.992
7.972
7.984
7.984
7.972
7.964
7.988
7.98
7.96
7.948
7.976
7.988
7.98
8.008
8.004
8.036
8.044
8.036
8.056
8.06
8.064
8.108
8.164
8.2
8.196
8.172
8.116
8.076
8.04
8.052
8.012
8.012
8.008
7.98
7.956
7.94
7.932
7.908
7.936
7.928
7.944
7.912
7.908
7.912
7.92
7.916
7.904
7.932
7.928
7.924
7.848
7.76
7.776
7.964
8.32
8.948
9.608
10.228
10.816
11.06
11.132
10.712
9.532
8.352
7.776
7.6
7.628
7.732
7.82
7.928
7.984
7.972
7.976
7.992
7.956
7.952
7.968
7.972
7.984
7.96
7.972
8.004
8.012
7.984
8.004
8.008
8.02
8.008
8
8.04
8.04
8.032
8.028
8.04
8.048
8.052
8.068
8.084
8.104
8.084
8.116
8.108
8.132
8.128
8.152
8.188
8.204
8.216
8.236
8.272
8.264
8.32
8.32
8.396
8.436
8.46
8.484
8.496
8.54
8.608
8.628
8.644
8.72
8.732
8.736
8.72
8.704
8.68
8.648
8.58
8.508
8.452
8.408
8.336
8.288
8.252
8.2
8.168
8.104
8.092
8.056
8.04
8.02
8
8.008
8.016
7.996
7.988
7.984
7.992
7.948
7.968
7.964
7.988
7.996
7.984
8.012
7.98
7.976
7.968
8
8.004
8
7.972
7.988
8.008
7.988
7.968
7.996
8.016
7.98
7.984
7.976
7.98
8
7.944
7.98
8.008
8
7.992
7.996
8.024
8.04
8.028
8.036
8.052
8.068
8.052
8.068
8.124
8.156
8.204
8.184
8.196
8.152
8.116
8.092
8.088
8.048
8.012
7.984
7.992
7.98
7.948
7.948
7.94
7.948
7.94
7.94
7.932
7.94
7.948
7.948
7.92
7.956
7.932
7.928
7.928
7.896
7.812
7.78
7.904
8.216
8.784
9.436
10.024
10.652
11.076
11.172
10.956
9.948
8.648
7.904
7.616
7.608
7.724
7.848
7.928
8
8
8.012
7.992
7.972
7.98
7.996
7.988
7.992
7.984
7.996
7.988
8.004
8
8.032
8.036
8.028
8.032
8.04
8.044
8.044
8.04
8.044
8.084
8.076
8.076
8.088
8.1
8.088
7.972
8.104
8.148
8.14
8.136
8.028
8.192
8.204
8.232
8.212
8.252
8.292
8.324
8.356
8.364
8.436
8.448
8.476
8.524
8.568
8.596
8.62
8.66
8.7
8.716
8.74
8.76
8.76
8.728
8.676
8.628
8.576
8.48
8.432
8.368
8.34
8.272
8.204
8.168
8.144
8.112
8.064
8.052
8.068
8.052
8.04
8.016
7.988
8.008
8
7.992
8.004
8.016
7.996
8
8.012
8.004
8.004
7.992
8.008
8.044
8.032
8.016
8.012
8.004
8.028
7.996
8
8.028
8
8.028
7.996
8.02
8.012
8.008
7.94
8.02
8.048
8.036
8.04
8.064
8.06
8.068
8.068
8.1
8.124
8.152
8.188
8.216
8.256
8.224
8.212
8.148
8.148
8.136
8.068
8.048
8.056
8.064
8.028
7.992
8
7.984
7.992
7.956
7.948
7.968
7.992
7.94
7.976
7.988
7.996
7.956
7.964
7.984
7.968
7.908
7.804
7.828
8.068
8.396
8.972
9.648
10.288
10.86
11.12
11.216
10.776
9.516
8.272
7.708
7.516
7.568
7.724
7.82
7.98
8.072
8.016
8.012
8.012
8.016
7.992
8.016
8.028
8.044
8.028
8.024
8.02
8.056
8.02
8.044
8.068
8.064
8.064
8.04
8.076
8.068
8.092
8.084
8.084
8.124
8.116
8.104
8.116
8.136
8.136
8.132
8.164
8.192
8.228
8.224
8.216
8.248
8.264
8.288
8.3
8.336
8.36
8.416
8.416
8.44
8.52
8.56
8.584
8.612
8.672
8.684
8.728
8.724
8.776
8.804
8.784
8.748
8.732
8.66
8.608
8.548
8.508
8.456
8.4
8.328
8.272
8.232
8.18
8.132
8.1
8.104
8.088
8.064
8.048
8.064
8.036
8.04
8.024
8.032
8.032
8.012
8.016
8.028
8.02
8.012
8.016
8.024
8.04
8.064
8.04
8.048
8.052
8.048
8.04
8.036
8.032
8.052
8.036
8.032
8.052
8.032
8.032
8.016
8.032
8.032
8.04
8.032
8.04
8.036
8.032
8.02
8.036
8.044
8.044
8.02
8.064
8.084
8.096
8.092
8.088
8.132
8.136
8.152
8.2
8.256
8.26
8.248
8.196
8.156
8.156
8.124
8.072
8.08
8.084
8.052
8.016
8.024
7.996
8.02
7.996
8.004
8.02
8.016
8.008
8.008
8.02
8
8
7.992
7.988
7.984
7.992
7.912
7.832
7.872
8.112
8.456
9.088
9.728
10.372
10.948
11.168
11.236
10.672
9.336
8.172
7.664
7.508
7.56
7.752
7.876
8.036
8.08
8.06
8.04
8.052
8.056
8.028
8.032
8.052
8.056
8.048
8.056
8.072
8.064
8.052
8.084
8.116
8.1
8.08
8.088
8.1
8.136
8.088
8.124
8.156
8.148
8.144
8.148
8.192
8.176
8.18
8.188
8.208
8.256
8.252
8.244
8.288
8.304
8.3
8.316
8.352
8.4
8.408
8.44
8.464
8.496
8.516
8.556
8.604
8.652
8.696
8.72
8.748
8.764
8.804
8.784
8.78
8.796
8.78
8.732
8.668
8.624
8.552
8.472
8.424
8.38
8.336
8.28
8.244
8.2
8.184
8.152
8.112
8.12
8.108
8.108
8.076
8.072
8.08
8.08
8.064
8.072
8.092
8.108
8.084
8.048
8.072
8.076
8.052
8.044
8.068
8.076
8.08
8.072
8.04
8.06
8.056
8.052
8.06
8.08
8.076
8.052
8.048
8.032
8.036
8.032
8.052
8.076
8.044
8.052
8.004
8.02
8.052
8.036
8.024
8.052
8.048
8.056
8.02
8.004
8.044
8.02
7.992
8.016
8.032
8.024
8.004
8.012
8.028
7.992
7.996
7.988
8.02
8.032
8.04
8
8.032
8.064
8.068
8.064
8.08
8.092
8.092
8.08
8.16
8.2
8.24
8.224
8.224
8.144
8.12
8.096
8.072
8.032
8.052
8.06
8.008
7.992
7.996
7.96
7.952
7.98
7.984
7.984
7.976
7.968
7.988
7.964
7.932
7.968
7.968
7.976
7.956
7.908
7.824
7.816
8.032
8.408
9.064
9.716
10.34
10.92
11.092
11.152
10.572
9.308
8.16
7.676
7.492
7.536
7.696
7.812
7.944
7.988
8.012
7.992
8
7.98
7.984
8
8.004
7.984
7.996
7.98
8
7.992
8.008
8.02
8.016
8.016
8.024
8.016
8.048
8.048
8.02
8.052
8.056
8.06
8.06
8.064
8.076
8.076
8.096
8.1
8.136
8.148
8.116
8.148
8.18
8.212
8.212
8.232
8.26
8.268
8.304
8.316
8.348
8.376
8.412
8.448
8.488
8.52
8.576
8.56
8.6
8.656
8.676
8.708
8.724
8.728
8.7
8.664
8.6
8.564
8.512
8.472
8.396
8.348
8.284
8.244
8.18
8.132
8.124
8.08
8.016
8.028
8.028
7.988
7.964
7.972
7.988
7.976
7.96
7.968
7.984
7.976
7.972
7.948
7.968
7.98
7.976
7.968
7.98
7.996
7.952
7.968
7.98
7.984
7.976
7.976
7.972
7.984
7.96
7.948
7.956
7.98
7.984
7.972
7.96
7.972
7.976
7.964
7.952
7.972
7.96
7.952
7.944
7.928
7.956
7.96
7.92
7.96
7.96
7.944
7.948
7.952
7.912
7.956
7.908
7.932
7.948
7.944
7.94
7.928
7.944
7.936
7.948
7.944
7.984
7.988
7.988
8.004
8.012
8.052
8.076
8.104
8.18
8.2
8.184
8.1
8.06
8.036
8.048
7.964
7.98
7.984
7.988
7.948
7.92
7.92
7.936
7.932
7.912
7.936
7.932
7.92
7.888
7.908
7.916
7.932
7.9
7.94
7.932
7.884
7.756
7.756
7.96
8.34
8.96
9.636
10.272
10.88
11.096
11.14
10.636
9.376
8.188
7.68
7.544
7.584
7.704
7.784
7.924
8.012
8.012
7.952
7.972
8
7.984
7.96
7.98
7.992
8
7.976
7.984
8.024
8.004
7.984
7.992
8.02
8.016
8.032
8.004
8.04
8.036
8.036
8.02
8.032
8.06
8.076
8.084
8.1
8.116
8.132
8.104
8.116
8.16
8.176
8.168
8.2
8.228
8.24
8.252
8.26
8.324
8.336
8.368
8.396
8.452
8.48
8.516
8.528
8.564
8.616
8.648
8.676
8.716
8.736
8.748
8.72
8.712
8.672
8.624
8.568
8.496
8.484
8.4
8.336
8.268
8.252
8.2
8.148
8.116
8.096
8.072
8.036
8.008
8.024
7.992
7.988
8
8.012
8.036
7.988
7.992
8.008
8
8
7.988
8
8.012
8.024
8.004
7.992
8.032
8.012
8.004
8.012
8.036
8.016
8.02
7.996
8
8.008
8.028
7.996
8.008
8.032
8.012
7.976
7.996
7.988
8.012
8.004
7.996
8.012
7.992
7.988
7.972
7.976
8.004
8.016
7.984
8.012
7.976
8
7.956
7.996
7.988
7.984
7.972
7.98
7.992
7.984
7.964
7.968
7.984
7.992
7.968
7.98
7.984
7.988
7.96
7.98
7.984
7.956
7.98
7.984
7.976
7.988
7.996
7.96
7.972
8.032
8.016
8.04
8.048
8.068
8.068
8.104
8.152
8.212
8.232
8.2
8.132
8.108
8.088
8.064
8.028
8.044
8.024
8.016
7.988
7.976
7.972
7.96
7.932
7.944
7.972
7.972
7.964
7.976
7.976
7.968
7.944
7.948
7.98
7.936
7.848
7.82
7.98
8.284
8.768
9.36
9.976
10.612
11.044
11.14
11.024
10.024
8.648
7.828
7.536
7.568
7.688
7.82
7.948
8.048
8.056
8.016
7.988
8.044
8.036
8.032
8.016
8.036
8.02
8.024
8.016
8.028
8.02
8.04
8.048
8.052
8.072
8.06
8.056
8.072
8.124
8.096
8.092
8.084
8.132
8.112
8.124
8.116
8.156
8.168
8.16
8.176
8.168
8.204
8.196
8.204
8.24
8.28
8.292
8.316
8.364
8.4
8.396
8.424
8.48
8.524
8.524
8.54
8.6
8.628
8.692
8.708
8.748
8.772
8.792
8.784
8.804
8.804
8.724
8.672
8.6
8.564
8.504
8.448
8.36
8.332
8.26
8.22
8.168
8.164
8.136
8.104
8.052
8.052
8.052
8.04
8
8.016
8.064
8.032
8.008
7.992
8.032
8.016
8.004
8.04
8.036
8.036
8.02
8.028
8.04
8.028
8.02
8.012
8.032
8.052
8.048
8.012
8.004
8.056
8.04
7.992
8.052
8.048
8.04
8.012
8.024
8.024
8.024
8.004
8.016
8.024
8.028
8.016
8.004
8.016
8.04
8.036
8.012
8.016
8.04
8.024
7.996
8
8.028
7.984
7.988
8.008
8.012
8.016
7.98
8.004
7.984
7.98
8
7.988
8.008
8.008
7.996
7.988
8.004
8
7.98
7.98
7.98
8.012
7.996
7.992
7.996
8.016
7.968
7.968
8.004
8.024
8.004
7.988
8
8
8.016
7.976
7.992
8.016
8.052
8.06
8.048
8.068
8.136
8.168
8.212
8.224
8.236
8.18
8.092
8.088
8.104
8.048
8.036
8.06
8.052
8.012
7.992
7.988
7.988
7.972
7.988
7.984
8.008
7.984
7.984
7.964
7.964
7.992
7.98
7.98
7.968
7.9
7.82
7.984
8.28
8.808
9.408
10.024
10.648
11.116
11.2
11
9.98
8.62
7.836
7.52
7.536
7.724
7.844
7.94
8.04
8.052
8.06
8.04
8.024
8.04
8.06
8.028
8.02
8.028
8.06
8.064
8.032
8.052
8.06
8.052
8.044
8.068
8.068
8.092
8.08
8.092
8.116
8.12
8.104
8.096
8.112
8.144
8.14
8.132
8.136
8.168
8.18
8.164
8.196
8.228
8.22
8.236
8.272
8.304
8.316
8.316
8.34
8.392
8.436
8.456
8.488
8.528
8.572
8.576
8.608
8.676
8.728
8.74
8.764
8.78
8.828
8.796
8.78
8.744
8.7
8.644
8.556
8.512
8.468
8.396
8.308
8.264
8.232
8.204
8.164
8.096
8.088
8.084
8.048
8.016
8.016
8.032
8.016
7.996
8.02
8.024
8.012
7.984
8.02
8.028
8.016
7.988
8.004
8.016
8.02
8
7.992
8.02
8.012
8.012
8.004
8.012
7.996
7.984
8
8.024
8.012
8.016
7.976
7.996
8.024
7.984
7.98
7.984
8
7.964
7.96
7.98
8.012
7.988
7.972
7.968
7.976
7.976
7.968
7.964
7.968
7.984
7.936
7.948
7.96
7.992
7.924
7.948
7.944
7.968
7.94
7.94
7.94
7.972
7.948
7.936
7.94
7.936
7.956
7.916
7.912
7.968
7.98
7.988
7.976
8.028
8.02
8.036
8.048
8.108
8.176
8.184
8.136
8.108
8.068
8.056
8.016
7.996
7.996
7.984
7.916
7.9
7.92
7.92
7.9
7.876
7.908
7.908
7.904
7.868
7.888
7.892
7.888
7.892
7.892
7.92
7.892
7.784
7.692
7.772
8.04
8.48
9.208
9.92
10.528
11.012
11.064
10.984
10.064
8.704
7.848
7.576
7.452
7.5
7.64
7.788
7.896
7.964
7.932
7.964
7.968
7.952
7.948
7.936
7.948
7.94
7.924
7.968
7.968
7.972
7.964
7.976
7.984
7.964
7.94
7.976
8.004
8.02
7.972
7.976
8.008
8.036
8.024
8.024
8.068
8.092
8.052
8.072
8.088
8.12
8.104
8.116
8.128
8.16
8.172
8.172
8.2
8.256
8.276
8.284
8.336
8.384
8.416
8.432
8.448
8.52
8.552
8.576
8.584
8.652
8.68
8.692
8.68
8.68
8.688
8.608
8.584
8.52
8.504
8.412
8.316
8.284
8.232
8.188
8.12
8.1
8.092
8.024
7.996
7.968
7.968
7.952
7.94
7.924
7.952
7.932
7.928
7.884
7.924
7.936
7.92
7.928
7.948
7.944
7.94
7.908
7.932
7.948
7.936
7.936
7.932
7.972
7.98
7.94
7.948
7.944
7.956
7.928
7.956
7.948
7.964
7.96
7.908
7.948
7.952
7.944
7.948
7.948
7.968
7.96
7.92
7.924
7.944
7.94
7.912
7.928
7.948
7.928
7.912
7.9
7.916
7.936
7.908
7.908
7.92
7.936
7.912
7.888
7.908
7.948
7.928
7.92
7.96
7.976
7.964
7.972
7.984
8
8.044
8.076
8.104
8.152
8.156
8.048
8.016
8.024
8.008
7.976
7.948
7.928
7.936
7.92
7.884
7.876
7.888
7.904
7.876
7.892
7.884
7.896
7.88
7.904
7.904
7.908
7.9
7.884
7.892
7.796
7.704
7.812
8.136
8.616
9.26
9.9
10.536
11.04
11.104
11.044
10.128
8.78
7.876
7.528
7.5
7.632
7.72
7.812
7.94
7.984
7.976
7.912
7.94
7.968
7.956
7.94
7.944
7.968
7.992
7.968
7.964
7.976
8.012
7.98
7.984
7.988
8.016
8.02
8.024
8.008
8.044
8.04
8.028
8.032
8.068
8.06
8.056
8.06
8.088
8.1
8.096
8.088
8.148
8.176
8.196
8.184
8.192
8.228
8.268
8.26
8.316
8.36
8.388
8.424
8.444
8.488
8.556
8.548
8.608
8.624
8.688
8.704
8.716
8.744
8.764
8.712
8.704
8.676
8.62
8.56
8.492
8.436
8.396
8.316
8.22
8.204
8.168
8.128
8.064
8.068
8.036
7.996
7.964
7.988
7.996
7.976
7.972
7.948
7.964
7.988
7.952
7.924
7.972
7.98
7.956
7.936
7.944
7.984
7.948
7.976
7.972
7.996
7.976
7.972
7.968
7.996
7.976
7.968
7.956
7.976
7.968
7.968
7.952
7.972
7.976
7.956
7.952
7.988
7.996
7.968
7.948
7.972
7.964
7.968
7.948
7.948
7.964
7.956
7.932
7.932
7.98
7.936
7.932
7.94
7.964
7.964
7.956
7.908
7.952
7.94
7.932
7.916
7.952
7.952
7.94
7.904
7.916
7.944
7.944
7.908
7.916
7.968
7.956
7.928
7.956
7.956
8
7.984
8.004
8.02
8.064
8.096
8.128
8.152
8.172
8.132
8.056
8.052
8.076
8.024
7.988
7.94
8
7.952
7.928
7.884
7.936
7.928
7.892
7.908
7.916
7.892
7.904
7.904
7.908
7.94
7.924
7.896
7.908
7.852
7.772
7.78
8.052
8.456
9.024
9.612
10.264
10.884
11.088
11.144
10.576
9.316
8.12
7.584
7.436
7.544
7.688
7.812
7.92
8.028
8
7.94
7.94
7.948
7.968
7.952
7.98
7.976
7.976
7.956
7.952
7.984
7.976
7.988
7.964
8.004
8.028
8
7.98
8.024
8.044
8.016
8.04
8.036
8.052
8.06
8.048
8.056
8.076
8.104
8.092
8.104
8.116
8.144
8.152
8.16
8.188
8.212
8.236
8.236
8.284
8.336
8.36
8.376
8.412
8.476
8.496
8.54
8.54
8.632
8.636
8.672
8.676
8.732
8.76
8.752
8.716
8.716
8.656
8.584
8.524
8.46
8.424
8.328
8.284
8.208
8.188
8.112
8.052
8.052
8.032
8.016
7.96
7.964
7.976
7.968
7.94
7.924
7.928
7.952
7.948
7.924
7.972
7.968
7.948
7.932
7.952
7.956
7.948
7.936
7.948
7.98
7.956
7.948
7.944
7.944
7.972
7.948
7.932
7.964
7.956
7.936
7.928
7.948
7.96
7.952
7.936
7.936
7.94
7.944
7.916
7.936
7.948
7.952
7.892
7.948
7.944
7.932
7.912
7.916
7.924
7.936
7.928
7.928
7.928
7.92
7.904
7.908
7.88
7.936
7.904
7.912
7.912
7.916
7.896
7.896
7.892
7.928
7.912
7.904
7.924
7.924
7.908
7.904
7.908
7.916
7.916
7.912
7.928
7.936
7.924
7.908
7.928
7.956
7.964
8.004
7.968
8.016
8.044
8.104
8.116
8.148
8.136
8.076
8.024
8.04
8.012
7.976
7.944
7.944
7.968
7.936
7.892
7.892
7.92
7.896
7.876
7.876
7.896
7.924
7.904
7.896
7.904
7.916
7.896
7.88
7.876
7.792
7.752
7.92
8.264
8.82
9.452
10.064
10.676
11.06
11.164
10.856
9.708
8.404
7.712
7.436
7.448
7.616
7.78
7.884
7.968
7.984
7.992
7.952
7.928
7.948
7.98
7.972
7.968
7.944
7.988
7.984
7.948
7.976
7.972
7.992
8
7.98
7.992
7.992
7.988
8
8.032
8.052
8.032
8.036
8.032
8.064
8.044
8.048
8.036
8.1
8.092
8.084
8.14
8.128
8.168
8.16
8.192
8.236
8.272
8.26
8.296
8.348
8.352
8.388
8.432
8.464
8.524
8.548
8.588
8.624
8.644
8.7
8.708
8.748
8.756
8.768
8.7
8.668
8.644
8.54
8.5
8.412
8.384
8.324
8.26
8.184
8.152
8.112
8.076
8.028
8.028
8.016
7.976
7.936
7.944
7.932
7.936
7.94
7.944
7.952
7.964
7.924
7.944
7.952
7.956
7.92
7.948
7.952
7.944
7.932
7.94
7.96
7.96
7.948
7.932
7.944
7.96
7.952
7.932
7.924
7.912
7.944
7.92
7.912
7.94
7.956
7.908
7.928
7.912
7.908
7.896
7.908
7.932
7.936
7.912
7.892
7.908
7.92
7.9
7.904
7.928
7.916
7.916
7.88
7.908
7.908
7.9
7.864
7.88
7.908
7.884
7.864
7.86
7.888
7.904
7.868
7.876
7.908
7.896
7.872
7.86
7.916
7.9
7.916
7.936
7.952
7.984
7.992
8.04
8.076
8.112
8.104
8.028
7.988
7.992
7.96
7.92
7.896
7.932
7.88
7.868
7.844
7.868
7.856
7.844
7.84
7.852
7.844
7.828
7.836
7.844
7.868
7.828
7.836
7.84
7.824
7.752
7.64
7.724
8.02
8.476
9.224
9.872
10.524
11
11.028
10.944
10.036
8.7
7.804
7.484
7.38
7.46
7.612
7.712
7.86
7.936
7.924
7.868
7.864
7.876
7.908
7.888
7.908
7.92
7.92
7.892
7.904
7.916
7.936
7.916
7.936
7.956
7.952
7.948
7.928
7.936
7.98
7.972
7.964
7.972
7.98
7.988
7.98
7.996
8.036
8.032
8.048
8.044
8.084
8.08
8.076
8.1
8.136
8.164
8.16
8.2
8.248
8.264
8.272
8.308
8.384
8.408
8.448
8.472
8.528
8.564
8.564
8.612
8.652
8.668
8.676
8.636
8.652
8.628
8.564
8.492
8.428
8.396
8.328
8.264
8.196
8.168
8.124
8.072
8.004
8
7.96
7.92
7.924
7.936
7.916
7.872
7.876
7.86
7.892
7.868
7.876
7.872
7.868
7.868
7.884
7.876
7.9
7.9
7.884
7.9
7.908
7.884
7.872
7.896
7.876
7.904
7.908
7.892
7.88
7.908
7.904
7.888
7.892
7.916
7.896
7.9
7.904
7.916
7.896
7.884
7.888
7.904
7.892
7.896
7.896
7.896
7.88
7.88
7.864
7.896
7.872
7.872
7.864
7.876
7.884
7.868
7.84
7.84
7.876
7.868
7.856
7.856
7.864
7.86
7.864
7.88
7.904
7.916
7.92
7.912
7.956
7.968
8.012
8.048
8.092
8.104
8.088
8.028
7.988
8.004
7.952
7.904
7.916
7.928
7.892
7.868
7.852
7.848
7.856
7.828
7.84
7.872
7.872
7.852
7.848
7.852
7.864
7.832
7.832
7.856
7.824
7.752
7.636
7.744
8.056
8.544
9.188
9.872
10.52
11.008
11.112
10.996
10.112
8.72
7.832
7.524
7.476
7.564
7.68
7.8
7.896
7.892
7.924
7.888
7.92
7.912
7.896
7.904
7.92
7.912
7.916
7.912
7.94
7.94
7.956
7.94
7.96
7.956
7.96
7.964
7.96
8.008
7.988
7.972
7.98
7.996
8.02
7.992
8.032
8.064
8.076
8.064
8.064
8.084
8.116
8.096
8.124
8.16
8.176
8.196
8.188
8.252
8.284
8.3
8.324
8.376
8.436
8.468
8.492
8.516
8.596
8.616
8.652
8.656
8.712
8.74
8.74
8.668
8.724
8.64
8.612
8.54
8.484
8.42
8.364
8.312
8.24
8.156
8.156
8.08
8.092
8.06
8.008
7.992
7.968
7.988
7.976
7.952
7.924
7.964
7.976
7.952
7.904
7.912
7.948
7.92
7.964
7.948
7.976
7.96
7.932
7.968
7.984
7.976
7.964
7.964
7.984
7.984
7.96
7.952
7.98
7.96
7.96
7.972
7.968
7.992
7.948
7.964
7.964
7.972
7.936
7.952
7.976
7.964
7.976
7.94
7.968
7.972
7.924
7.96
7.968
7.944
7.98
7.94
7.936
7.968
7.952
7.936
7.94
7.976
7.964
7.924
7.924
7.972
7.956
7.932
7.928
7.952
7.94
7.892
7.944
7.952
7.98
7.944
7.976
7.98
8.02
8.008
7.992
8.032
8.08
8.132
8.16
8.188
8.168
8.136
8.036
8.052
8.024
8.012
7.976
7.996
7.972
7.964
7.932
7.888
7.9
7.94
7.928
7.916
7.912
7.944
7.92
7.904
7.904
7.936
7.904
7.932
7.88
7.78
7.796
7.964
8.26
8.808
9.444
10.048
10.708
11.096
11.192
10.936
9.796
8.468
7.752
7.5
7.52
7.68
7.8
7.932
7.984
8.02
8.004
7.988
7.968
7.984
7.996
8.008
7.988
7.988
7.992
8.032
8.004
7.996
7.988
8.036
8.004
7.984
7.992
8.048
8.044
8.056
8.064
8.084
8.076
8.056
8.088
8.116
8.132
8.088
8.128
8.152
8.164
8.16
8.184
8.192
8.204
8.244
8.232
8.292
8.328
8.332
8.356
8.388
8.452
8.472
8.476
8.544
8.604
8.628
8.656
8.704
8.72
8.776
8.8
8.804
8.816
8.82
8.784
8.704
8.668
8.64
8.556
8.472
8.416
8.38
8.292
8.248
8.196
8.172
8.136
8.072
8.068
8.056
8.024
7.988
7.988
8.016
8.028
8.004
7.988
7.988
8.028
8
8
8
8.02
8.008
7.988
8
8.016
7.992
7.98
8.008
8.032
8.028
8.016
8.016
7.984
7.988
7.984
8.02
8.028
8.028
8.008
8.02
8.004
8.032
8.004
8
7.992
8.028
8.008
7.988
8
8.012
8
7.988
8.004
8.016
8.02
7.992
8.008
8
8.016
7.988
7.984
8.016
7.992
8
7.988
7.988
7.984
7.976
7.968
8
8.008
8.008
7.972
7.988
8.008
7.996
7.996
7.996
8.012
8.004
8.012
8.012
8.052
8.056
8.068
8.08
8.124
8.164
8.212
8.228
8.22
8.248
8.164
8.136
8.116
8.128
8.056
8.052
8.056
8.036
8
7.984
7.98
7.996
8.004
7.988
7.98
7.984
7.984
7.976
7.972
7.984
8.008
7.992
7.984
7.94
7.848
7.828
8.016
8.352
8.908
9.588
10.188
10.828
11.184
11.252
10.968
9.828
8.52
7.78
7.512
7.544
7.716
7.832
7.944
8.072
8.076
8.064
8.024
8.032
8.028
8.076
8.032
8.056
8.024
8.068
8.048
8.068
8.072
8.072
8.056
8.064
8.088
8.1
8.092
8.096
8.096
8.112
8.104
8.108
8.092
8.124
8.152
8.128
8.132
8.16
8.184
8.172
8.192
8.216
8.24
8.248
8.24
8.272
8.304
8.336
8.344
8.408
8.452
8.472
8.492
8.516
8.576
8.608
8.612
8.68
8.74
8.792
8.792
8.816
8.844
8.868
8.828
8.788
8.752
8.724
8.652
8.584
8.504
8.468
8.396
8.34
8.28
8.24
8.192
8.124
8.108
8.1
8.08
8.056
8.044
8.024
8.032
7.984
8.02
8
8.012
7.984
8.008
8.028
8.02
8.02
8.036
8.012
8.024
8.028
8
8.016
8.012
8.036
8.02
8.032
8.048
8.036
8.032
8.024
8.04
8.02
8.028
8.004
8
8.024
7.996
7.996
8.008
8.012
8.024
7.98
7.98
8.008
8.008
8
8
7.996
8.016
7.996
8
7.964
7.992
7.976
7.972
7.976
7.992
7.976
7.976
7.972
8.008
7.98
7.976
7.972
8
7.968
7.976
7.98
8.012
8.044
8.028
8.036
8.08
8.124
8.148
8.196
8.212
8.228
8.16
8.116
8.116
8.088
8.012
7.988
8.008
7.996
7.972
7.936
7.964
7.972
7.956
7.948
7.952
7.964
7.956
7.944
7.952
7.952
7.96
7.936
7.948
7.916
7.808
7.736
7.852
8.192
8.724
9.456
10.092
10.744
11.148
11.192
10.924
9.852
8.552
7.812
7.58
7.508
7.62
7.764
7.864
7.976
8.044
8
7.984
7.984
8.004
8.012
8.008
8
8.012
8.016
8
8.008
8.02
8.052
8.044
8.028
8.036
8.06
8.068
8.048
8.064
8.072
8.076
8.084
8.088
8.104
8.096
8.084
8.116
8.152
8.176
8.156
8.164
8.192
8.192
8.188
8.216
8.256
8.284
8.288
8.316
8.376
8.376
8.42
8.44
8.5
8.556
8.568
8.564
8.64
8.704
8.728
8.716
8.756
8.792
8.792
8.74
8.744
8.696
8.648
8.56
8.516
8.472
8.424
8.332
8.276
8.244
8.176
8.14
8.092
8.088
8.096
8.056
8.024
8.012
8.028
8.012
7.996
7.992
8.016
8.016
8.004
8.008
7.996
8.02
7.968
8.004
8.024
8.032
8.016
8.008
8.016
8.012
8
7.996
8.024
8.028
8.02
7.984
8
8.02
8.012
8
8.016
8.028
8.02
8.004
7.992
8.012
8.016
7.984
8
8.004
8.016
8
7.98
7.972
8.004
7.988
7.984
7.996
7.996
8
7.98
7.988
7.996
7.992
7.98
7.984
8
8.012
7.956
7.964
7.988
8.008
7.984
7.996
8.02
8.032
8
8.016
8.056
8.064
8.052
8.06
8.144
8.188
8.228
8.188
8.18
8.144
8.108
8.076
8.04
8.072
8.056
8.012
8
8
7.976
7.96
7.964
7.98
7.984
7.964
7.948
7.964
7.988
7.98
7.968
7.976
7.992
7.976
7.9
7.816
7.84
8.048
8.404
9
9.664
10.296
10.892
11.156
11.26
10.82
9.54
8.312
7.744
7.54
7.588
7.74
7.868
8.016
8.056
8.044
8.04
8.024
8.024
8.008
8.024
8.036
8.052
8.008
8.044
8.048
8.068
8.052
8.052
8.072
8.068
8.072
8.08
8.084
8.104
8.064
8.084
8.112
8.132
8.124
8.132
8.132
8.164
8.16
8.152
8.172
8.204
8.22
8.2
8.252
8.276
8.288
8.288
8.308
8.364
8.404
8.412
8.432
8.48
8.528
8.54
8.592
8.64
8.696
8.724
8.756
8.788
8.824
8.82
8.832
8.836
8.828
8.8
8.736
8.688
8.616
8.552
8.484
8.412
8.372
8.288
8.244
8.192
8.168
8.148
8.1
8.068
8.044
8.068
8.052
8.044
8.024
8.04
8.016
8.012
8.024
8.028
8.02
8.008
8.028
8.04
8.052
8
8.004
8.048
8.04
8.032
8.036
8.032
8.028
8.012
8.016
8.028
8.048
8.044
7.996
8.024
8.044
8.012
8
8.008
8.036
8.04
8.004
8.02
8.036
8.012
8.024
7.996
8.008
8.02
8
8.008
8.024
7.992
8.008
8.008
8.016
8.024
8.02
7.976
8
7.976
7.98
7.968
8
8
7.992
7.996
7.992
8.004
7.984
7.98
7.988
7.984
8
8
7.984
8.004
8.02
8.012
8.028
8.044
8.076
8.08
8.128
8.168
8.22
8.216
8.196
8.164
8.116
8.108
8.092
8.044
8.032
8.052
8.008
8
7.996
7.968
7.98
7.96
7.972
7.98
7.952
7.944
7.944
8.004
7.984
7.956
7.952
7.976
7.92
7.836
7.8
7.928
8.204
8.708
9.336
9.98
10.624
11.08
11.2
11.088
10.152
8.768
7.86
7.532
7.5
7.628
7.756
7.92
8.04
8.052
8
8.008
8.016
8.016
7.996
8.012
8.052
8.028
8.028
8.02
8.04
8.044
8.028
8.04
8.036
8.068
8.06
8.056
8.084
8.08
8.056
8.068
8.1
8.104
8.12
8.104
8.124
8.12
8.136
8.112
8.16
8.176
8.188
8.2
8.204
8.232
8.24
8.256
8.3
8.348
8.356
8.388
8.42
8.468
8.504
8.532
8.572
8.608
8.696
8.708
8.716
8.748
8.8
8.788
8.804
8.824
8.812
8.764
8.676
8.62
8.568
8.504
8.42
8.36
8.312
8.272
8.192
8.14
8.108
8.08
8.044
8.024
8.052
8.028
7.988
7.968
7.976
7.988
7.968
7.956
7.996
8
8.02
7.972
7.968
7.984
7.996
7.948
7.98
8.004
7.988
7.98
7.956
7.98
8
7.964
7.976
7.968
7.992
7.98
7.964
7.956
7.984
7.964
7.956
7.96
7.956
7.984
7.936
7.936
7.944
7.952
7.92
7.928
7.936
7.952
7.924
7.94
7.936
7.928
7.944
7.944
7.936
7.936
7.944
7.912
7.9
7.94
7.904
7.904
7.904
7.916
7.9
7.884
7.916
7.92
7.92
7.916
7.888
7.928
7.924
7.908
7.86
7.892
7.904
7.896
7.888
7.92
7.932
7.936
7.96
7.956
7.98
8.012
8.048
8.096
8.16
8.136
8.1
8.028
8.02
8.02
7.98
7.956
7.948
7.94
7.884
7.856
7.848
7.876
7.84
7.848
7.856
7.848
7.864
7.836
7.824
7.836
7.848
7.86
7.832
7.872
7.784
7.7
7.664
7.876
8.216
8.868
9.556
10.228
10.848
11.06
11.088
10.572
9.332
8.136
7.584
7.396
7.412
7.536
7.644
7.8
7.888
7.924
7.888
7.876
7.896
7.872
7.884
7.876
7.904
7.904
7.888
7.912
7.932
7.912
7.916
7.908
7.916
7.924
7.944
7.94
7.936
7.936
7.916
7.928
7.944
7.972
7.972
7.976
7.972
7.984
8.004
8.008
8.02
8.064
8.06
8.076
8.084
8.128
8.16
8.152
8.148
8.18
8.264
8.272
8.276
8.34
8.38
8.404
8.448
8.484
8.532
8.58
8.58
8.616
8.652
8.692
8.68
8.684
8.668
8.62
8.556
8.476
8.416
8.38
8.3
8.228
8.184
8.12
8.084
8.024
8
7.972
7.936
7.916
7.916
7.908
7.924
7.896
7.896
7.876
7.884
7.888
7.852
7.88
7.892
7.884
7.872
7.872
7.88
7.88
7.88
7.856
7.904
7.888
7.864
7.868
7.896
7.884
7.876
7.884
7.892
7.896
7.896
7.868
7.896
7.876
7.88
7.872
7.884
7.9
7.872
7.868
7.892
7.884
7.876
7.864
7.884
7.904
7.896
7.872
7.86
7.896
7.876
7.868
7.884
7.896
7.868
7.852
7.86
7.884
7.884
7.888
7.896
7.912
7.944
7.948
7.928
7.992
8.008
8.064
8.08
8.112
8.096
8.048
7.992
7.992
7.964
7.936
7.92
7.932
7.912
7.888
7.852
7.836
7.836
7.88
7.852
7.84
7.876
7.864
7.864
7.844
7.86
7.852
7.864
7.864
7.828
7.768
7.672
7.752
8.076
8.636
9.376
9.988
10.644
11.08
11.136
10.932
9.884
8.572
7.792
7.54
7.468
7.572
7.736
7.796
7.928
7.956
7.96
7.928
7.936
7.94
7.956
7.952
7.92
7.956
7.98
7.928
7.952
7.96
7.992
7.996
7.964
7.948
8.004
8.016
8
7.992
8.012
8.028
8.028
8.028
8.032
8.06
8.052
8.06
8.088
8.132
8.128
8.096
8.164
8.168
8.18
8.176
8.216
8.268
8.26
8.284
8.324
8.364
8.416
8.432
8.48
8.524
8.552
8.588
8.592
8.688
8.724
8.728
8.744
8.764
8.776
8.764
8.696
8.668
8.62
8.564
8.488
8.444
8.392
8.3
8.24
8.196
8.176
8.132
8.08
8.056
8.036
8.036
8.008
8
8.024
8.02
8.008
7.984
7.996
8.028
8.008
7.996
8.008
8.016
8.024
7.992
8.028
8.036
8.036
8.02
8.02
8.032
8.04
8.024
8.024
8.052
8.032
8.02
8.032
8.032
8.044
8.048
8.036
8.032
8.068
8.036
8.04
8.036
8.048
8.056
8.028
8.024
8.036
8.028
8.016
8.016
8.036
8.044
8.032
8.036
8.048
8.04
8.016
8
8.036
8.044
8.02
8.024
8.024
8.028
8.012
8.032
8.048
8.04
8.064
8.028
8.108
8.12
8.116
8.088
8.14
8.168
8.24
8.256
8.276
8.228
8.192
8.152
8.14
8.12
8.116
8.08
8.056
8.076
8.06
8.036
8.028
8.02
8.036
8.04
8.028
8
8.028
8
8.008
8.032
8.036
8.032
8.012
7.964
7.864
7.916
8.156
8.568
9.184
9.8
10.42
11.028
11.24
11.3
10.716
9.352
8.216
7.712
7.576
7.688
7.808
7.956
8.088
8.108
8.104
8.092
8.096
8.092
8.096
8.092
8.092
8.108
8.072
8.108
8.104
8.12
8.116
8.112
8.124
8.14
8.12
8.14
8.164
8.156
8.14
8.164
8.16
8.18
8.164
8.204
8.212
8.224
8.232
8.228
8.236
8.272
8.244
8.292
8.296
8.348
8.34
8.372
8.392
8.428
8.444
8.464
8.508
8.584
8.596
8.624
8.676
8.712
8.74
8.8
8.82
8.888
8.9
8.912
8.904
8.92
8.904
8.844
8.776
8.748
8.66
8.596
8.528
8.46
8.404
8.376
8.316
8.252
8.24
8.192
8.148
8.14
8.14
8.128
8.116
8.1
8.136
8.112
8.1
8.092
8.104
8.104
8.072
8.084
8.116
8.128
8.108
8.092
8.12
8.112
8.108
8.116
8.116
8.124
8.12
8.104
8.116
8.128
8.096
8.108
8.1
8.108
8.12
8.088
8.096
8.108
8.1
8.112
8.084
8.124
8.092
8.1
8.08
8.104
8.092
8.092
8.104
8.1
8.112
8.12
8.08
8.088
8.096
8.104
8.092
8.08
8.092
8.12
8.068
8.08
8.08
8.088
8.088
8.068
8.1
8.12
8.096
8.088
8.116
8.132
8.164
8.16
8.18
8.212
8.244
8.28
8.312
8.332
8.288
8.204
8.204
8.184
8.176
8.12
8.132
8.104
8.12
8.06
8.052
8.072
8.072
8.056
8.052
8.068
8.072
8.064
8.08
8.072
8.088
8.068
8.064
8.064
8.02
7.924
7.928
8.168
8.524
9.124
9.76
10.4
11.032
11.264
11.34
10.848
9.568
8.352
7.78
7.56
7.66
7.82
7.94
8.072
8.172
8.164
8.12
8.112
8.128
8.148
8.144
8.136
8.132
8.16
8.128
8.128
8.152
8.144
8.152
8.188
8.16
8.168
8.172
8.172
8.18
8.204
8.212
8.212
8.224
8.244
8.24
8.252
8.228
8.26
8.272
8.264
8.272
8.296
8.328
8.356
8.348
8.376
8.412
8.46
8.484
8.496
8.532
8.568
8.608
8.628
8.684
8.712
8.776
8.796
8.82
8.884
8.916
8.92
8.96
8.984
8.984
8.948
8.888
8.852
8.784
8.696
8.632
8.612
8.56
8.484
8.424
8.38
8.336
8.292
8.24
8.232
8.232
8.192
8.168
8.16
8.188
8.176
8.152
8.136
8.172
8.148
8.164
8.144
8.164
8.16
8.144
8.148
8.144
8.188
8.192
8.148
8.172
8.168
8.184
8.16
8.168
8.152
8.188
8.164
8.148
8.164
8.168
8.148
8.16
8.148
8.16
8.16
8.16
8.172
8.144
8.132
8.128
8.136
8.16
8.132
8.144
8.124
8.156
8.128
8.12
8.148
8.148
8.148
8.136
8.108
8.14
8.092
8.108
8.124
8.136
8.144
8.12
8.12
8.132
8.116
8.104
8.144
8.192
8.176
8.192
8.172
8.208
8.244
8.292
8.34
8.364
8.376
8.296
8.24
8.212
8.236
8.18
8.128
8.136
8.16
8.108
8.084
8.072
8.08
8.092
8.076
8.088
8.096
8.076
8.076
8.06
8.048
8.1
8.088
8.06
8.044
8
7.884
7.932
8.188
8.608
9.324
9.996
10.672
11.184
11.312
11.256
10.46
9.112
8.104
7.736
7.6
7.676
7.804
7.92
8.04
8.128
8.144
8.112
8.116
8.112
8.128
8.116
8.096
8.104
8.12
8.124
8.132
8.14
8.136
8.128
8.14
8.128
8.136
8.14
8.152
8.164
8.176
8.164
8.184
8.156
8.204
8.204
8.192
8.2
8.228
8.236
8.24
8.252
8.252
8.272
8.3
8.292
8.348
8.368
8.384
8.376
8.428
8.476
8.528
8.524
8.568
8.616
8.644
8.672
8.7
8.756
8.788
8.832
8.856
8.88
8.888
8.848
8.84
8.792
8.756
8.708
8.648
8.58
8.504
8.464
8.384
8.328
8.308
8.252
8.224
8.18
8.176
8.152
8.108
8.084
8.108
8.08
8.1
8.068
8.092
8.084
8.052
8.052
8.064
8.092
8.08
8.064
8.076
8.088
8.076
8.052
8.064
8.072
8.076
8.092
8.08
8.092
8.08
8.076
8.076
8.072
8.076
8.088
8.076
8.084
8.084
8.08
8.068
8.068
8.088
8.08
8.072
8.064
8.088
8.064
8.052
8.064
8.084
8.06
8.064
8.04
8.056
8.064
8.052
8.044
8.064
8.088
8.096
8.092
8.108
8.124
8.128
8.096
8.148
8.192
8.26
8.268
8.26
8.256
8.212
8.168
8.16
8.152
8.124
8.104
8.076
8.064
8.044
8.036
8.024
8.028
8.052
8.048
8.028
8.008
8.008
8.02
8.004
8.012
8.032
8.04
8
8
7.916
7.82
7.856
8.18
8.68
9.392
10.044
10.66
11.168
11.264
11.192
10.316
8.96
8
7.696
7.588
7.684
7.796
7.928
8.02
8.108
8.1
8.056
8.072
8.044
8.092
8.092
8.076
8.084
8.108
8.096
8.112
8.104
8.108
8.104
8.1
8.1
8.132
8.14
8.152
8.14
8.164
8.152
8.172
8.152
8.176
8.192
8.216
8.2
8.2
8.228
8.252
8.244
8.26
8.296
8.308
8.316
8.336
8.352
8.384
8.416
8.44
8.484
8.544
8.568
8.592
8.616
8.688
8.692
8.72
8.776
8.82
8.828
8.844
8.848
8.868
8.864
8.804
8.78
8.712
8.656
8.58
8.512
8.452
8.4
8.344
8.292
8.26
8.232
8.192
8.152
8.14
8.144
8.112
8.104
8.108
8.096
8.104
8.092
8.084
8.1
8.084
8.084
8.096
8.096
8.092
8.092
8.084
8.092
8.1
8.096
8.088
8.12
8.112
8.108
8.084
8.1
8.12
8.12
8.104
8.1
8.1
8.108
8.076
8.112
8.088
8.112
8.096
8.108
8.116
8.108
8.092
8.072
8.112
8.112
8.108
8.112
8.096
8.108
8.1
8.092
8.088
8.088
8.088
8.092
8.096
8.104
8.092
8.072
8.064
8.088
8.068
8.1
8.092
8.1
8.108
8.112
8.136
8.172
8.156
8.184
8.172
8.248
8.276
8.336
8.316
8.312
8.256
8.22
8.204
8.172
8.164
8.16
8.136
8.128
8.104
8.112
8.076
8.08
8.096
8.072
8.072
8.06
8.052
8.044
8.064
8.076
8.072
8.084
8.088
8.02
7.948
7.928
8.072
8.372
8.892
9.504
10.112
10.724
11.212
11.348
11.204
10.2
8.808
7.968
7.66
7.628
7.78
7.912
8.06
8.144
8.148
8.132
8.108
8.124
8.112
8.108
8.152
8.14
8.104
8.136
8.148
8.156
8.128
8.144
8.16
8.156
8.176
8.18
8.18
8.18
8.184
8.172
8.192
8.204
8.208
8.208
8.236
8.236
8.236
8.24
8.268
8.252
8.308
8.308
8.328
8.336
8.368
8.368
8.404
8.42
8.484
8.48
8.536
8.548
8.604
8.624
8.68
8.712
8.768
8.796
8.84
8.86
8.904
8.924
8.932
8.932
8.948
8.892
8.832
8.756
8.724
8.648
8.56
8.496
8.468
8.404
8.348
8.284
8.276
8.216
8.208
8.168
8.168
8.156
8.144
8.116
8.116
8.104
8.1
8.108
8.116
8.124
8.136
8.116
8.12
8.116
8.112
8.096
8.112
8.112
8.112
8.096
8.092
8.116
8.108
8.104
8.108
8.116
8.124
8.116
8.104
8.104
8.124
8.1
8.084
8.12
8.124
8.112
8.08
8.092
8.092
8.104
8.088
8.088
8.116
8.108
8.076
8.084
8.088
8.096
8.096
8.088
8.104
8.112
8.1
8.076
8.108
8.084
8.092
8.088
8.1
8.096
8.088
8.088
8.072
8.108
8.096
8.084
8.096
8.132
8.112
8.136
8.108
8.156
8.168
8.168
8.184
8.228
8.288
8.324
8.336
8.348
8.28
8.228
8.216
8.208
8.192
8.152
8.156
8.136
8.112
8.088
8.08
8.08
8.08
8.084
8.068
8.064
8.064
8.088
8.072
8.076
8.084
8.08
8.084
8.056
8
7.928
8.004
8.272
8.704
9.32
9.932
10.584
11.136
11.292
11.284
10.524
9.128
8.124
7.68
7.58
7.692
7.844
7.98
8.112
8.152
8.132
8.124
8.116
8.112
8.104
8.14
8.136
8.12
8.132
8.14
8.136
8.116
8.144
8.144
8.144
8.152
8.156
8.164
8.172
8.164
8.164
8.192
8.172
8.2
8.188
8.204
8.248
8.22
8.228
8.248
8.256
8.272
8.292
8.32
8.332
8.336
8.352
8.368
8.412
8.432
8.472
8.504
8.532
8.556
8.564
8.632
8.688
8.732
8.732
8.772
8.836
8.872
8.872
8.88
8.908
8.896
8.856
8.808
8.76
8.712
8.652
8.564
8.516
8.444
8.384
8.32
8.296
8.256
8.204
8.168
8.14
8.12
8.12
8.092
8.064
8.092
8.096
8.064
8.068
8.072
8.08
8.044
8.064
8.064
8.048
8.064
8.048
8.056
8.08
8.056
8.056
8.052
8.048
8.052
8.048
8.032
8.064
8.064
8.048
8.052
8.056
8.036
8.028
8.024
8.032
8.032
8.024
8.012
8.02
8.004
8.008
8.008
8.028
8.02
8.04
8.004
8.012
8.008
8.012
7.968
7.988
7.984
7.988
7.976
7.98
7.98
7.984
7.948
7.968
7.98
7.976
7.948
7.96
7.952
7.952
7.924
7.936
7.948
7.968
7.976
7.964
7.972
7.996
7.996
7.992
8.008
8.012
8.056
8.084
8.116
8.172
8.188
8.152
8.084
8.048
8.064
8.032
7.996
7.984
7.976
7.94
7.9
7.908
7.904
7.912
7.9
7.908
7.908
7.908
7.884
7.9
7.912
7.904
7.884
7.892
7.892
7.872
7.74
7.708
7.88
8.204
8.788
9.496
10.144
10.748
11.072
11.128
10.812
9.644
8.376
7.704
7.448
7.436
7.58
7.7
7.824
7.916
7.976
7.94
7.924
7.928
7.956
7.956
7.952
7.94
7.964
7.96
7.928
7.932
7.952
7.964
7.94
7.972
7.968
7.984
7.96
7.996
7.988
8
7.98
8
8
8.012
8.008
8.024
8.028
8.056
8.064
8.08
8.056
8.108
8.104
8.12
8.128
8.172
8.188
8.204
8.248
8.304
8.312
8.328
8.344
8.428
8.444
8.468
8.528
8.56
8.616
8.616
8.656
8.676
8.704
8.68
8.676
8.668
8.636
8.524
8.484
8.42
8.364
8.312
8.248
8.172
8.156
8.1
8.06
8.028
8.004
7.964
7.92
7.928
7.936
7.94
7.912
7.904
7.88
7.888
7.88
7.872
7.884
7.908
7.892
7.892
7.896
7.884
7.888
7.896
7.876
7.92
7.876
7.868
7.896
7.904
7.908
7.896
7.896
7.916
7.892
7.876
7.908
7.896
7.904
7.908
7.908
7.904
7.904
7.892
7.872
7.888
7.916
7.892
7.884
7.868
7.912
7.896
7.868
7.872
7.9
7.904
7.888
7.888
7.908
7.868
7.868
7.86
7.872
7.896
7.9
7.928
7.944
7.964
7.96
7.928
7.972
8.048
8.084
8.112
8.12
8.076
8.04
7.992
7.996
7.98
7.956
7.932
7.916
7.888
7.888
7.836
7.844
7.86
7.872
7.868
7.864
7.88
7.888
7.84
7.836
7.856
7.86
7.856
7.852
7.836
7.76
7.692
7.824
8.168
8.764
9.472
10.076
10.712
11.096
11.172
10.868
9.728
8.404
7.756
7.532
7.508
7.608
7.744
7.84
7.924
7.968
7.96
7.948
7.92
7.96
7.948
7.944
7.928
7.952
7.96
7.968
7.932
7.972
7.972
7.98
7.98
7.988
7.992
8.02
7.984
8.02
8.02
8.028
8.028
8.028
8.036
8.092
8.072
8.064
8.076
8.112
8.128
8.128
8.144
8.196
8.2
8.208
8.224
8.264
8.284
8.312
8.34
8.392
8.44
8.444
8.492
8.536
8.592
8.584
8.636
8.684
8.736
8.756
8.772
8.792
8.796
8.74
8.704
8.624
8.6
8.548
8.472
8.412
8.36
8.296
8.212
8.184
8.152
8.12
8.092
8.056
8.052
8.036
8.016
7.996
8.016
8.012
8.004
7.98
8
8
7.984
7.976
8.016
8.02
8.02
7.996
7.992
8.024
8.008
8.012
8.008
8.028
8.036
8.012
8
8.008
8.04
8.028
8.012
8.016
8.02
8.028
8.02
8.012
7.992
8.02
8
8.004
8.04
8.048
8.02
8.016
8.036
8.024
8.012
8.004
8.028
8.028
8.016
7.996
8.016
8.008
8.02
8.004
8.02
8.028
8.032
8
8.004
8.016
8.004
7.988
8.008
8.032
8.032
7.992
8.036
8.068
8.076
8.092
8.084
8.124
8.164
8.192
8.24
8.228
8.24
8.164
8.136
8.116
8.128
8.068
8.04
8.06
8.064
8.04
8.012
8.004
8.032
8.008
7.996
7.984
8.024
8
7.968
7.984
7.992
8.016
7.996
7.972
7.972
7.876
7.864
8.068
8.436
8.984
9.588
10.204
10.852
11.188
11.252
10.912
9.728
8.456
7.796
7.528
7.576
7.792
7.912
8.032
8.092
8.092
8.076
8.036
8.036
8.052
8.076
8.064
8.052
8.048
8.076
8.08
8.064
8.076
8.068
8.104
8.084
8.092
8.104
8.112
8.1
8.092
8.12
8.14
8.136
8.128
8.176
8.18
8.152
8.16
8.2
8.212
8.228
8.232
8.26
8.272
8.3
8.288
8.308
8.368
8.396
8.4
8.468
8.492
8.532
8.54
8.588
8.624
8.704
8.712
8.744
8.808
8.836
8.836
8.876
8.872
8.884
8.876
8.8
8.756
8.728
8.644
8.568
8.488
8.448
8.42
8.332
8.284
8.232
8.216
8.148
8.144
8.124
8.112
8.104
8.092
8.088
8.084
8.072
8.036
8.072
8.088
8.088
8.076
8.096
8.084
8.072
8.072
8.088
8.112
8.088
8.072
8.096
8.096
8.072
8.072
8.064
8.096
8.1
8.1
8.096
8.088
8.096
8.116
8.052
8.088
8.096
8.092
8.088
8.088
8.104
8.072
8.068
8.092
8.112
8.104
8.072
8.072
8.08
8.108
8.064
8.072
8.092
8.1
8.076
8.064
8.084
8.08
8.052
8.028
8.076
8.092
8.088
8.056
8.08
8.088
8.08
8.048
8.076
8.076
8.096
8.088
8.092
8.128
8.128
8.128
8.152
8.156
8.168
8.216
8.26
8.288
8.32
8.28
8.208
8.192
8.208
8.156
8.112
8.116
8.12
8.104
8.048
8.064
8.048
8.064
8.052
8.056
8.056
8.048
8.028
8.032
8.056
8.064
8.02
8.02
8.048
8.004
7.888
7.876
8.1
8.456
9.04
9.656
10.32
10.952
11.22
11.268
10.9
9.66
8.408
7.764
7.552
7.612
7.744
7.876
8.012
8.12
8.108
8.064
8.072
8.08
8.084
8.072
8.06
8.064
8.084
8.096
8.076
8.088
8.1
8.088
8.084
8.084
8.12
8.12
8.116
8.12
8.14
8.14
8.124
8.148
8.172
8.176
8.16
8.172
8.192
8.204
8.188
8.208
8.256
8.268
8.268
8.272
8.284
8.324
8.336
8.364
8.388
8.436
8.48
8.468
8.528
8.58
8.62
8.66
8.688
8.744
8.776
8.796
8.82
8.848
8.844
8.864
8.816
8.768
8.736
8.664
8.608
8.552
8.496
8.412
8.332
8.284
8.26
8.204
8.144
8.108
8.116
8.084
8.056
8.028
8.056
8.04
8.012
7.996
7.996
8.028
7.996
7.996
7.996
8.028
8.012
7.972
7.976
8.02
7.988
8.008
7.992
8.012
8.02
7.996
7.992
8.012
8.008
7.996
8.02
8.024
8.016
7.996
7.964
7.988
7.988
7.98
7.968
7.992
7.996
7.984
7.94
7.972
7.992
7.984
7.976
8
7.984
7.98
7.96
7.94
7.952
7.936
7.956
7.96
7.948
7.964
7.956
7.908
7.944
7.924
7.928
7.948
7.932
7.94
7.932
7.912
7.924
7.968
7.956
7.952
7.996
7.988
8.012
8.024
8.056
8.144
8.172
8.148
8.12
8.084
8.064
8.044
7.992
7.984
8.004
7.96
7.912
7.928
7.92
7.908
7.888
7.912
7.884
7.916
7.888
7.884
7.9
7.884
7.868
7.864
7.888
7.9
7.852
7.72
7.704
7.88
8.212
8.816
9.6
10.248
10.816
11.044
11.112
10.6
9.36
8.156
7.648
7.516
7.508
7.596
7.724
7.856
7.928
7.916
7.936
7.94
7.932
7.912
7.908
7.92
7.944
7.912
7.924
7.932
7.956
7.948
7.944
7.956
7.976
7.964
7.944
7.984
7.992
7.988
8
8.004
8.012
7.996
8
8.004
8.04
8.048
8.064
8.032
8.08
8.076
8.108
8.12
8.128
8.188
8.192
8.176
8.236
8.248
8.284
8.296
8.344
8.4
8.428
8.46
8.5
8.556
8.592
8.612
8.624
8.676
8.7
8.704
8.688
8.668
8.648
8.58
8.508
8.488
8.44
8.36
8.276
8.236
8.2
8.124
8.084
8.068
8.044
8.032
7.968
7.968
7.976
7.948
7.932
7.948
7.972
7.956
7.948
7.92
7.956
7.948
7.936
7.936
7.96
7.96
7.968
7.944
7.976
7.972
7.972
7.928
7.972
7.976
7.948
7.96
7.96
7.976
7.952
7.952
7.98
7.992
7.996
7.964
7.948
7.952
7.96
7.944
7.956
7.968
7.984
7.952
7.964
7.964
7.984
7.948
7.928
7.968
7.976
7.972
7.96
7.944
7.972
7.964
7.96
7.964
7.996
7.996
8.008
8.012
8.024
8.02
8.056
8.076
8.164
8.204
8.184
8.18
8.148
8.108
8.08
8.04
8.044
8.052
8.012
8.004
7.972
7.98
7.96
7.952
7.968
7.976
7.976
7.956
7.948
7.964
7.968
7.968
7.94
7.968
7.976
7.928
7.844
7.796
7.904
8.168
8.64
9.288
9.92
10.552
11.048
11.228
11.172
10.332
8.952
8.008
7.672
7.572
7.7
7.816
7.904
8.036
8.044
8.02
8.02
8.012
8.012
7.984
8.012
8.02
8.032
8.02
8.06
8.052
8.036
8.044
8.04
8.068
8.056
8.052
8.08
8.084
8.116
8.088
8.1
8.108
8.112
8.112
8.112
8.148
8.172
8.136
8.16
8.188
8.22
8.22
8.244
8.244
8.288
8.296
8.296
8.34
8.384
8.4
8.424
8.456
8.524
8.576
8.584
8.628
8.68
8.728
8.748
8.792
8.828
8.852
8.852
8.836
8.82
8.788
8.716
8.652
8.616
8.56
8.472
8.408
8.352
8.316
8.252
8.224
8.184
8.16
8.144
8.088
8.056
8.072
8.06
8.044
8.036
8.068
8.06
8.04
8.024
8.052
8.068
8.052
8.048
8.072
8.072
8.04
8.04
8.032
8.056
8.056
8.06
8.064
8.08
8.076
8.052
8.048
8.072
8.068
8.052
8.048
8.06
8.072
8.04
8.044
8.052
8.064
8.072
8.056
8.064
8.068
8.044
8.024
8.028
8.044
8.044
8.04
8.056
8.052
8.056
8.028
8.024
8.04
8.044
8.024
8.028
8.052
8.044
8.024
8.02
8.024
8.04
8.064
8.044
8.064
8.072
8.108
8.084
8.116
8.148
8.164
8.18
8.232
8.284
8.268
8.244
8.168
8.168
8.168
8.12
8.088
8.088
8.084
8.056
8.028
8.04
7.996
8.008
7.992
8.012
8.024
8.008
7.996
8.02
8.032
8.04
8.012
8.008
8.024
7.964
7.868
7.876
8.116
8.504
9.068
9.668
10.348
10.964
11.196
11.252
10.804
9.564
8.324
7.728
7.544
7.656
7.788
7.888
8.024
8.112
8.112
8.076
8.064
8.056
8.088
8.064
8.032
8.084
8.072
8.092
8.072
8.08
8.108
8.1
8.092
8.112
8.116
8.116
8.116
8.128
8.156
8.144
8.124
8.132
8.184
8.192
8.192
8.188
8.208
8.22
8.204
8.22
8.272
8.304
8.292
8.296
8.332
8.372
8.376
8.384
8.424
8.496
8.516
8.532
8.58
8.644
8.656
8.672
8.736
8.792
8.828
8.852
8.884
8.912
8.916
8.88
8.848
8.828
8.788
8.708
8.624
8.584
8.524
8.428
8.376
8.352
8.312
8.268
8.172
8.176
8.168
8.136
8.116
8.112
8.108
8.104
8.076
8.092
8.104
8.1
8.084
8.064
8.1
8.096
8.076
8.064
8.088
8.104
8.088
8.064
8.096
8.104
8.092
8.076
8.08
8.112
8.08
8.08
8.08
8.1
8.084
8.052
8.064
8.072
8.08
8.08
8.092
8.076
8.104
8.088
8.056
8.072
8.076
8.052
8.048
8.072
8.092
8.076
8.052
8.056
8.068
8.048
8.028
8.036
8.068
8.044
8
8.012
8.024
8.032
8.012
8.016
8.044
8.048
8.024
8.004
8.036
8.06
8.064
8.036
8.096
8.12
8.112
8.096
8.144
8.208
8.236
8.252
8.256
8.224
8.188
8.144
8.124
8.1
8.072
8.08
8.052
8.036
8.04
7.992
7.992
8.012
8.008
7.992
7.964
8.004
8.004
8
8
7.996
8.012
8.028
7.98
7.896
7.848
7.872
8.096
8.492
9.16
9.816
10.428
11.04
11.232
11.236
10.572
9.252
8.156
7.696
7.504
7.58
7.748
7.876
7.992
8.052
8.044
8.048
8.028
8.02
8.032
8.048
8.032
8.02
8.024
8.044
8.056
8.048
8.04
8.068
8.06
8.068
8.044
8.088
8.08
8.076
8.076
8.088
8.096
8.088
8.084
8.108
8.104
8.116
8.132
8.152
8.18
8.192
8.18
8.216
8.22
8.228
8.26
8.26
8.308
8.308
8.36
8.36
8.404
8.456
8.5
8.532
8.56
8.64
8.632
8.648
8.696
8.752
8.776
8.776
8.772
8.768
8.748
8.708
8.636
8.616
8.532
8.484
8.392
8.372
8.296
8.22
8.148
8.128
8.116
8.096
8.028
8.008
8.008
7.992
7.972
7.976
7.98
7.992
7.964
7.956
7.992
7.968
7.948
7.932
7.952
7.956
7.956
7.936
7.96
7.952
7.952
7.924
7.964
8.004
7.976
7.956
7.968
7.98
7.952
7.924
7.976
7.976
7.984
7.94
7.932
7.976
7.948
7.94
7.936
7.952
7.976
7.932
7.94
7.956
7.94
7.904
7.912
7.936
7.952
7.94
7.92
7.912
7.92
7.908
7.9
7.92
7.928
7.92
7.944
7.944
7.972
7.968
7.988
7.968
8.004
8.052
8.088
8.116
8.128
8.144
8.08
8.024
8.036
8.032
7.984
7.936
7.952
7.928
7.884
7.884
7.884
7.904
7.904
7.872
7.888
7.888
7.86
7.868
7.844
7.892
7.912
7.86
7.86
7.864
7.784
7.672
7.716
7.968
8.404
9.072
9.752
10.384
10.96
11.1
11.112
10.372
9.076
8.02
7.62
7.492
7.544
7.68
7.76
7.88
7.964
7.972
7.924
7.932
7.928
7.932
7.924
7.92
7.944
7.956
7.972
7.932
7.94
7.976
7.976
7.952
7.956
8
7.996
7.992
7.992
8.012
8.004
8
8.008
8.048
8.06
8.04
8.02
8.068
8.08
8.072
8.088
8.108
8.136
8.16
8.132
8.196
8.208
8.256
8.256
8.292
8.34
8.36
8.384
8.416
8.476
8.516
8.544
8.568
8.632
8.684
8.668
8.7
8.688
8.728
8.692
8.648
8.644
8.588
8.532
8.444
8.388
8.328
8.288
8.22
8.152
8.132
8.064
8.024
7.988
8
8.008
7.98
7.972
7.984
7.984
7.968
7.944
7.956
7.952
7.948
7.944
7.96
7.992
7.948
7.952
7.96
7.988
7.976
7.94
7.96
8
7.988
7.968
7.972
7.984
7.968
7.968
7.972
7.996
7.992
7.976
7.972
7.984
7.988
7.984
7.964
7.968
8.004
7.976
7.956
7.976
7.976
7.956
7.952
7.968
7.96
7.968
7.932
7.94
7.976
7.972
7.936
7.936
7.964
7.96
7.964
7.96
7.984
8
8.02
8.016
8.044
8.052
8.056
8.104
8.152
8.2
8.192
8.144
8.1
8.1
8.064
8.02
7.988
8.004
8.012
7.98
7.952
7.948
7.94
7.932
7.892
7.916
7.936
7.932
7.92
7.94
7.952
7.928
7.888
7.924
7.936
7.88
7.768
7.796
8.008
8.324
8.876
9.476
10.148
10.768
11.116
11.232
10.964
9.8
8.444
7.732
7.496
7.544
7.692
7.8
7.928
8.036
8.004
7.972
7.968
7.992
7.984
7.976
7.968
8.004
7.992
7.988
7.948
7.996
8.02
7.976
8
8.02
8.036
7.996
8.012
8.024
8.056
8.06
8.028
8.052
8.08
8.064
8.052
8.092
8.096
8.124
8.124
8.14
8.18
8.192
8.172
8.196
8.24
8.264
8.276
8.288
8.34
8.348
8.404
8.396
8.464
8.496
8.56
8.576
8.632
8.688
8.688
8.7
8.748
8.788
8.788
8.772
8.736
8.724
8.672
8.564
8.528
8.452
8.42
8.328
8.26
8.248
8.192
8.128
8.076
8.064
8.044
8.04
8.008
8.004
8.004
7.984
7.976
7.968
7.988
7.996
7.948
7.968
7.988
7.984
7.944
7.976
7.988
7.992
7.988
7.988
7.996
7.992
7.976
7.976
7.984
8.012
7.972
7.956
7.992
8.004
8
7.984
7.968
8.004
7.996
7.996
7.984
7.996
7.988
7.972
7.976
8.012
8.016
7.988
7.984
7.976
8
7.996
7.964
7.968
8.008
8
7.992
7.956
7.976
7.976
7.976
7.98
7.996
8.012
8.008
8.036
8.056
8.068
8.068
8.08
8.136
8.208
8.212
8.2
8.192
8.14
8.104
8.06
8.068
8.072
8.044
8
8.008
7.992
7.976
7.944
7.964
7.992
7.968
7.96
7.932
7.96
7.964
7.92
7.968
7.944
7.984
7.944
7.916
7.84
7.812
7.976
8.292
8.844
9.512
10.136
10.768
11.16
11.268
11.032
9.864
8.54
7.792
7.532
7.524
7.676
7.836
7.944
8.032
8.036
8.028
8.02
8.008
7.992
8.016
8.028
8.016
8.016
8.032
8.068
8.072
8.044
8.024
8.064
8.056
8.056
8.048
8.084
8.092
8.08
8.076
8.088
8.088
8.084
8.076
8.116
8.116
8.12
8.1
8.144
8.152
8.192
8.152
8.212
8.22
8.256
8.232
8.272
8.316
8.348
8.348
8.412
8.452
8.48
8.512
8.544
8.584
8.624
8.648
8.696
8.736
8.772
8.788
8.764
8.768
8.764
8.696
8.644
8.592
8.52
8.468
8.372
8.34
8.288
8.232
8.148
8.116
8.104
8.064
8.036
8.032
8
7.992
7.952
7.96
7.956
7.976
7.944
7.94
7.936
7.936
7.936
7.928
7.932
7.964
7.94
7.928
7.928
7.952
7.948
7.92
7.964
7.948
7.964
7.948
7.936
7.94
7.948
7.936
7.924
7.944
7.96
7.936
7.928
7.964
7.944
7.944
7.932
7.928
7.94
7.916
7.928
7.92
7.92
7.924
7.912
7.932
7.96
7.944
7.92
7.896
7.924
7.92
7.9
7.904
7.892
7.924
7.896
7.896
7.908
7.908
7.9
7.896
7.896
7.932
7.912
7.88
7.92
7.944
7.952
7.944
7.968
7.964
7.992
8
8.06
8.1
8.116
8.084
8.02
7.996
8.004
7.968
7.904
7.896
7.884
7.88
7.832
7.836
7.86
7.852
7.82
7.852
7.848
7.86
7.836
7.824
7.868
7.836
7.828
7.836
7.824
7.772
7.664
7.596
7.828
8.148
8.8
9.556
10.18
10.768
11.056
11.072
10.592
9.332
8.2
7.652
7.524
7.516
7.612
7.712
7.792
7.884
7.904
7.868
7.888
7.836
7.892
7.888
7.884
7.876
7.884
7.864
7.868
7.868
7.884
7.888
7.868
7.876
7.884
7.904
7.904
7.904
7.924
7.932
7.932
7.924
7.924
7.984
7.928
7.956
7.968
7.968
7.956
7.98
8.004
8.008
8.028
8.012
8.072
8.112
8.104
8.12
8.16
8.212
8.232
8.22
8.284
8.352
8.372
8.412
8.404
8.44
8.488
8.504
8.54
8.552
8.524
8.54
8.524
8.484
8.484
8.38
8.316
8.292
8.22
8.144
8.084
8.036
7.992
7.972
7.932
7.888
7.908
7.876
7.836
7.816
7.832
7.824
7.804
7.788
7.82
7.812
7.76
7.768
7.792
7.804
7.784
7.756
7.772
7.752
7.768
7.796
7.828
7.812
7.824
7.78
7.796
7.808
7.78
7.784
7.82
7.78
7.8
7.788
7.8
7.792
7.796
7.768
7.736
7.756
7.792
7.78
7.776
7.768
7.816
7.764
7.752
7.784
7.8
7.748
7.724
7.76
7.768
7.78
7.728
7.76
7.78
7.768
7.816
7.776
7.788
7.836
7.816
7.832
7.844
7.9
7.94
7.92
7.964
7.936
7.88
7.88
7.852
7.82
7.792
7.736
7.756
7.732
7.736
7.684
7.692
7.72
7.732
7.7
7.72
7.744
7.708
7.704
7.704
7.692
7.724
7.708
7.692
7.692
7.528
7.496
7.62
7.992
8.672
9.46
10.076
10.676
10.996
11.092
10.54
9.256
8.148
7.708
7.588
7.528
7.636
7.68
7.744
7.78
7.796
7.788
7.776
7.744
7.768
7.76
7.76
7.716
7.756
7.772
7.732
7.752
7.804
7.836
7.784
7.788
7.78
7.8
7.8
7.78
7.824
7.86
7.84
7.832
7.848
7.868
7.888
7.84
7.872
7.888
7.924
7.908
7.92
7.944
7.956
7.964
7.964
7.988
8.06
8.072
8.056
8.092
8.152
8.188
8.172
8.212
8.26
8.316
8.328
8.376
8.42
8.416
8.424
8.464
8.492
8.484
8.444
8.36
8.316
8.3
8.224
8.16
8.112
8.064
8.004
7.932
7.924
7.896
7.86
7.84
7.816
7.816
7.82
7.812
7.744
7.776
7.764
7.768
7.74
7.74
7.76
7.716
7.74
7.78
7.736
7.732
7.752
7.76
7.792
7.764
7.732
7.768
7.756
7.76
7.7
7.724
7.724
7.756
7.748
7.728
7.732
7.752
7.756
7.764
7.784
7.792
7.76
7.712
7.744
7.74
7.748
7.74
7.752
7.76
7.744
7.768
7.78
7.812
7.788
7.804
7.88
7.94
7.908
7.912
7.952
7.984
7.98
7.936
7.908
7.92
7.86
7.784
7.776
7.752
7.76
7.716
7.728
7.736
7.736
7.692
7.68
7.708
7.704
7.708
7.7
7.676
7.74
7.72
7.744
7.72
7.692
7.576
7.476
7.564
7.904
8.484
9.22
9.844
10.464
10.912
11.028
10.812
9.788
8.472
7.832
7.604
7.572
7.6
7.672
7.724
7.76
7.836
7.788
7.752
7.724
7.78
7.776
7.76
7.752
7.788
7.796
7.772
7.732
7.772
7.808
7.776
7.792
7.8
7.792
7.788
7.788
7.804
7.812
7.792
7.788
7.812
7.864
7.856
7.852
7.84
7.904
7.916
7.868
7.868
7.948
7.968
7.96
7.968
8.008
8.052
8.056
8.048
8.108
8.136
8.16
8.188
8.244
8.284
8.312
8.336
8.364
8.392
8.412
8.432
8.432
8.436
8.436
8.384
8.324
8.296
8.252
8.188
8.144
8.12
8.036
8.008
7.932
7.92
7.884
7.864
7.824
7.82
7.84
7.816
7.804
7.796
7.804
7.808
7.768
7.752
7.748
7.792
7.784
7.764
7.792
7.796
7.772
7.756
7.776
7.804
7.816
7.788
7.828
7.84
7.808
7.768
7.784
7.836
7.828
7.832
7.82
7.84
7.812
7.792
7.82
7.84
7.836
7.82
7.796
7.824
7.828
7.816
7.812
7.82
7.84
7.812
7.804
7.812
7.804
7.84
7.82
7.824
7.844
7.864
7.848
7.84
7.868
7.856
7.884
7.876
7.92
7.952
7.988
8.02
8.036
8.016
7.976
7.908
7.912
7.948
7.904
7.888
7.868
7.888
7.836
7.816
7.8
7.824
7.836
7.8
7.824
7.78
7.804
7.788
7.764
7.796
7.808
7.804
7.796
7.804
7.756
7.64
7.604
7.86
8.256
8.86
9.512
10.192
10.8
11.072
11.132
10.692
9.504
8.376
7.86
7.672
7.704
7.776
7.788
7.824
7.896
7.916
7.908
7.876
7.876
7.86
7.84
7.86
7.876
7.876
7.9
7.848
7.864
7.9
7.884
7.844
7.88
7.936
7.936
7.9
7.908
7.94
7.94
7.912
7.924
7.976
7.96
7.924
7.928
7.984
8.008
7.996
7.992
8.044
8.064
8.064
8.052
8.084
8.14
8.144
8.164
8.212
8.248
8.272
8.268
8.312
8.372
8.42
8.408
8.468
8.54
8.556
8.568
8.552
8.596
8.592
8.584
8.556
8.532
8.5
8.428
8.348
8.276
8.216
8.196
8.136
8.1
8.072
8.032
7.968
7.972
7.952
7.964
7.904
7.924
7.932
7.948
7.92
7.916
7.924
7.936
7.9
7.908
7.924
7.952
7.928
7.936
7.94
7.956
7.94
7.876
7.948
7.968
7.956
7.916
7.924
7.948
7.964
7.936
7.944
7.944
7.98
7.936
7.944
7.944
7.98
7.944
7.908
7.968
7.96
7.972
7.936
7.916
7.96
7.948
7.928
7.968
7.956
7.976
7.944
7.936
7.952
7.96
7.932
7.944
7.96
7.968
7.972
7.928
7.936
7.96
7.936
7.944
7.948
7.968
7.992
7.964
7.964
8.008
8.02
8.012
8.02
8.072
8.124
8.148
8.16
8.164
8.152
8.092
8.06
8.06
8.072
8.024
7.98
7.992
8.012
7.968
7.932
7.952
7.964
7.94
7.924
7.932
7.964
7.924
7.916
7.94
7.976
7.96
7.928
7.92
7.888
7.76
7.792
7.98
8.376
8.992
9.632
10.3
10.908
11.292
11.356
10.908
9.704
8.568
8.04
7.836
7.832
7.912
7.976
7.988
8.052
8.048
8.036
7.996
7.984
8.016
7.996
7.984
8.008
8.024
8.028
8
8.008
8.016
8
8.04
8.02
8.036
8.064
8.04
8.028
8.064
8.056
8.068
8.068
8.076
8.12
8.096
8.084
8.108
8.132
8.16
8.128
8.152
8.184
8.2
8.2
8.232
8.264
8.308
8.312
8.316
8.368
8.42
8.436
8.444
8.48
8.54
8.568
8.6
8.656
8.64
8.72
8.712
8.716
8.74
8.756
8.708
8.66
8.616
8.572
8.496
8.428
8.388
8.352
8.272
8.22
8.196
8.184
8.128
8.084
8.096
8.088
8.08
8.04
8.02
8.052
8.016
8.02
8.012
8.04
8.048
8.04
8.036
8.02
8.044
8.044
8.024
8.064
8.06
8.052
8.04
8.052
8.056
8.056
8.036
8.052
8.096
8.068
8.056
8.056
8.056
8.056
8.048
8.036
8.076
8.072
8.068
8.052
8.06
8.068
8.064
8.044
8.04
8.076
8.076
8.032
8.052
8.052
8.068
8.036
8.056
8.048
8.08
8.028
8.036
8.056
8.028
8.012
8.024
8.048
8.076
8.052
8.036
8.052
8.052
8.032
8.012
8.032
8.072
8.04
8.032
8.04
8.048
8.008
8.024
8.044
8.056
8.056
8.036
8.044
8.048
8.028
8
8.004
8.048
8.06
8.044
8.024
8.056
8.064
8.032
8.028
8.024
8.052
8.032
8.028
8.012
8.056
8.028
8.028
8.024
8.044
8.048
8.048
8.048
8.056
8.052
8.024
8.024
8.04
8.052
8.048
8.008
8.048
8.04
8.044
8.036
8.072
8.08
8.048
8.032
8.036
8.076
8.04
8.048
8.04
8.068
8.04
8.016
8.04
8.052
8.04
8.024
8.06
8.088
8.096
8.072
8.048
8.096
8.112
8.112
8.104
8.152
8.168
8.188
8.236
8.264
8.268
8.26
8.156
8.168
8.196
8.14
8.124
8.124
8.132
8.116
8.068
8.06
8.072
8.084
8.056
8.036
8.06
8.084
8.068
8.056
8.056
8.092
8.08
8.012
7.948
7.92
8.084
8.372
8.892
9.484
10.124
10.736
11.248
11.372
11.192
10.276
9.016
8.292
7.988
7.976
8.012
8.088
8.156
8.196
8.172
8.148
8.156
8.14
8.112
8.08
8.14
8.112
8.116
8.128
8.168
8.144
8.128
8.132
8.164
8.152
8.144
8.136
8.168
8.192
8.148
8.164
8.18
8.196
8.184
8.204
8.204
8.244
8.24
8.24
8.208
8.248
8.264
8.272
8.28
8.312
8.324
8.336
8.352
8.396
8.404
8.444
8.468
8.52
8.56
8.552
8.596
8.632
8.692
8.716
8.744
8.808
8.852
8.868
8.864
8.912
8.924
8.908
8.888
8.868
8.804
8.736
8.688
8.6
8.576
8.536
8.492
8.408
8.376
8.344
8.296
8.252
8.26
8.224
8.196
8.192
8.204
8.2
8.176
8.164
8.188
8.192
8.192
8.184
8.188
8.212
8.196
8.164
8.18
8.172
8.192
8.196
8.2
8.212
8.228
8.188
8.188
8.184
8.204
8.184
8.168
8.188
8.196
8.188
8.168
8.164
8.192
8.216
8.176
8.196
8.192
8.2
8.18
8.18
8.18
8.172
8.188
8.18
8.188
8.18
8.156
8.152
8.156
8.188
8.16
8.188
8.168
8.188
8.172
8.156
8.136
8.168
8.16
8.152
8.176
8.14
8.148
8.148
8.136
8.152
8.164
8.132
8.152
8.152
8.156
8.152
8.156
8.156
8.172
8.192
8.168
8.148
8.164
8.144
8.132
8.148
8.18
8.18
8.148
8.144
8.152
8.152
8.12
8.144
8.136
8.18
8.156
8.148
8.16
8.16
8.152
8.144
8.136
8.176
8.156
8.132
8.152
8.164
8.16
8.144
8.132
8.16
8.168
8.148
8.144
8.148
8.168
8.124
8.144
8.16
8.172
8.148
8.148
8.136
8.164
8.16
8.124
8.148
8.184
8.176
8.168
8.136
8.16
8.16
8.124
8.152
8.168
8.16
8.164
8.148
8.168
8.148
8.136
8.152
8.164
8.172
8.204
8.192
8.204
8.24
8.236
8.26
8.328
8.384
8.348
8.316
8.268
8.272
8.24
8.204
8.2
8.24
8.196
8.196
8.168
8.176
8.168
8.148
8.156
8.16
8.188
8.164
8.16
8.168
8.18
8.172
8.156
8.104
8.008
8.104
8.372
8.804
9.332
9.96
10.584
11.168
11.428
11.42
10.804
9.492
8.504
8.028
7.932
8.032
8.14
8.212
8.276
8.28
8.252
8.252
8.232
8.216
8.244
8.248
8.252
8.228
8.216
8.248
8.228
8.228
8.26
8.26
8.252
8.22
8.26
8.26
8.276
8.276
8.272
8.296
8.328
8.316
8.292
8.304
8.344
8.332
8.36
8.348
8.36
8.376
8.384
8.408
8.428
8.452
8.444
8.476
8.512
8.536
8.552
8.556
8.612
8.672
8.684
8.716
8.78
8.82
8.86
8.896
8.936
8.976
8.984
9.024
9.044
9.092
9.052
9.02
8.996
8.952
8.872
8.816
8.764
8.688
8.636
8.56
8.508
8.476
8.416
8.38
8.34
8.304
8.296
8.248
8.244
8.228
8.24
8.232
8.24
8.208
8.228
8.228
8.196
8.208
8.24
8.24
8.244
8.228
8.236
8.216
8.212
8.232
8.22
8.236
8.224
8.232
8.228
8.228
8.22
8.212
8.216
8.204
8.228
8.236
8.236
8.22
8.208
8.204
8.22
8.224
8.216
8.216
8.2
8.208
8.204
8.196
8.188
8.2
8.192
8.212
8.192
8.208
8.184
8.212
8.164
8.208
8.192
8.208
8.164
8.192
8.192
8.18
8.192
8.192
8.212
8.2
8.176
8.184
8.192
8.192
8.16
8.16
8.18
8.188
8.172
8.176
8.168
8.192
8.16
8.168
8.164
8.148
8.14
8.14
8.152
8.168
8.168
8.16
8.148
8.176
8.152
8.16
8.172
8.18
8.156
8.136
8.152
8.156
8.164
8.152
8.16
8.156
8.168
8.144
8.152
8.148
8.164
8.136
8.136
8.132
8.16
8.168
8.192
8.224
8.248
8.268
8.292
8.32
8.356
8.316
8.268
8.232
8.24
8.192
8.2
8.184
8.164
8.168
8.148
8.136
8.128
8.16
8.136
8.136
8.124
8.156
8.136
8.112
8.144
8.16
8.144
8.084
7.976
7.992
8.24
8.6
9.188
9.876
10.528
11.132
11.328
11.352
10.848
9.592
8.468
7.972
7.82
7.836
7.94
8.052
8.128
8.208
8.188
8.18
8.176
8.192
8.176
8.184
8.192
8.184
8.152
8.18
8.208
8.216
8.212
8.188
8.2
8.216
8.2
8.212
8.22
8.228
8.224
8.224
8.212
8.228
8.236
8.232
8.268
8.284
8.304
8.28
8.3
8.288
8.308
8.324
8.34
8.376
8.372
8.4
8.44
8.464
8.492
8.504
8.528
8.596
8.64
8.668
8.692
8.744
8.784
8.836
8.84
8.896
8.948
8.972
8.98
9.004
8.992
8.964
8.892
8.872
8.808
8.74
8.668
8.58
8.528
8.468
8.404
8.348
8.332
8.308
8.232
8.22
8.18
8.16
8.156
8.136
8.132
8.144
8.124
8.108
8.092
8.108
8.088
8.1
8.116
8.124
8.104
8.14
8.116
8.136
8.12
8.12
8.088
8.128
8.136
8.112
8.12
8.112
8.12
8.108
8.108
8.116
8.136
8.124
8.116
8.12
8.12
8.128
8.12
8.112
8.14
8.132
8.112
8.08
8.116
8.096
8.104
8.104
8.12
8.12
8.1
8.072
8.076
8.08
8.076
8.068
8.08
8.104
8.108
8.084
8.076
8.076
8.088
8.064
8.076
8.096
8.096
8.056
8.072
8.068
8.068
8.068
8.044
8.076
8.068
8.092
8.056
8.08
8.084
8.072
8.06
8.04
8.072
8.064
8.044
8.072
8.108
8.128
8.128
8.164
8.248
8.268
8.232
8.188
8.188
8.164
8.136
8.12
8.12
8.12
8.088
8.048
8.048
8.056
8.036
8.048
8.048
8.076
8.06
8.052
8.04
8.06
8.052
8.06
8.06
8.036
7.928
7.864
8.02
8.356
8.964
9.668
10.3
10.92
11.272
11.336
10.992
9.904
8.668
7.988
7.808
7.78
7.892
7.972
8.048
8.136
8.176
8.148
8.116
8.124
8.156
8.12
8.136
8.128
8.16
8.16
8.164
8.132
8.172
8.164
8.172
8.164
8.18
8.2
8.188
8.184
8.196
8.232
8.212
8.188
8.228
8.236
8.256
8.26
8.268
8.288
8.288
8.288
8.288
8.324
8.348
8.352
8.38
8.416
8.424
8.472
8.456
8.52
8.536
8.588
8.624
8.68
8.704
8.76
8.764
8.808
8.868
8.904
8.924
8.956
8.98
8.996
8.98
8.948
8.912
8.852
8.776
8.72
8.648
8.588
8.512
8.428
8.416
8.36
8.324
8.272
8.248
8.224
8.212
8.172
8.172
8.184
8.188
8.156
8.16
8.164
8.164
8.156
8.156
8.168
8.184
8.18
8.164
8.172
8.196
8.156
8.152
8.156
8.188
8.192
8.184
8.184
8.184
8.192
8.192
8.18
8.184
8.196
8.188
8.192
8.212
8.196
8.188
8.188
8.18
8.22
8.204
8.184
8.2
8.2
8.176
8.168
8.176
8.192
8.212
8.172
8.188
8.188
8.164
8.168
8.184
8.188
8.184
8.184
8.192
8.208
8.188
8.168
8.164
8.18
8.212
8.196
8.18
8.196
8.192
8.184
8.18
8.18
8.208
8.18
8.16
8.176
8.196
8.188
8.188
8.188
8.224
8.216
8.208
8.168
8.188
8.168
8.176
8.18
8.232
8.272
8.268
8.26
8.308
8.376
8.372
8.368
8.336
8.336
8.308
8.252
8.24
8.272
8.248
8.208
8.224
8.22
8.212
8.188
8.156
8.204
8.18
8.188
8.172
8.212
8.216
8.2
8.18
8.192
8.152
8.064
8.036
8.256
8.592
9.16
9.76
10.42
11.024
11.4
11.476
11.18
10.044
8.764
8.084
7.82
7.876
8.016
8.108
8.208
8.312
8.304
8.26
8.236
8.264
8.256
8.24
8.244
8.24
8.272
8.276
8.26
8.276
8.264
8.256
8.256
8.272
8.304
8.288
8.268
8.284
8.296
8.312
8.296
8.3
8.324
8.34
8.316
8.332
8.348
8.384
8.384
8.388
8.396
8.428
8.428
8.416
8.464
8.492
8.52
8.532
8.52
8.592
8.632
8.66
8.684
8.756
8.784
8.808
8.856
8.9
8.96
8.98
9.02
9.064
9.076
9.052
9.048
9.044
9.012
8.944
8.84
8.788
8.748
8.66
8.588
8.508
8.488
8.444
8.364
8.348
8.3
8.28
8.248
8.24
8.224
8.24
8.196
8.164
8.208
8.192
8.196
8.168
8.184
8.204
8.176
8.152
8.176
8.188
8.18
8.196
8.168
8.2
8.196
8.18
8.188
8.18
8.196
8.184
8.184
8.2
8.18
8.184
8.172
8.188
8.184
8.18
8.18
8.18
8.188
8.18
8.152
8.156
8.156
8.164
8.172
8.172
8.188
8.188
8.176
8.144
8.172
8.164
8.164
8.152
8.156
8.164
8.124
8.132
8.164
8.164
8.14
8.136
8.164
8.168
8.128
8.132
8.12
8.152
8.156
8.152
8.132
8.18
8.148
8.136
8.116
8.1
8.148
8.132
8.16
8.184
8.224
8.22
8.224
8.268
8.344
8.336
8.296
8.288
8.264
8.224
8.216
8.192
8.208
8.208
8.152
8.156
8.148
8.148
8.116
8.104
8.144
8.136
8.14
8.12
8.128
8.128
8.128
8.104
8.124
8.112
7.984
7.96
8.168
8.508
9.108
9.792
10.396
11.048
11.336
11.396
10.992
9.804
8.552
7.952
7.76
7.776
7.928
8.02
8.128
8.216
8.256
8.196
8.184
8.196
8.208
8.196
8.204
8.204
8.232
8.208
8.192
8.204
8.244
8.236
8.236
8.236
8.24
8.26
8.24
8.244
8.24
8.256
8.26
8.268
8.268
8.308
8.296
8.276
8.316
8.328
8.336
8.324
8.34
8.388
8.372
8.388
8.42
8.46
8.488
8.48
8.52
8.568
8.6
8.604
8.664
8.728
8.76
8.8
8.824
8.86
8.916
8.928
8.948
9.004
8.996
8.996
8.992
8.936
8.944
8.828
8.776
8.708
8.684
8.592
8.54
8.472
8.436
8.36
8.324
8.276
8.276
8.26
8.212
8.196
8.208
8.2
8.176
8.168
8.188
8.2
8.196
8.172
8.188
8.18
8.196
8.172
8.192
8.192
8.192
8.184
8.18
8.192
8.216
8.192
8.168
8.204
8.216
8.208
8.184
8.184
8.204
8.18
8.192
8.2
8.212
8.204
8.152
8.208
8.196
8.2
8.176
8.208
8.212
8.184
8.184
8.188
8.196
8.192
8.188
8.18
8.192
8.192
8.184
8.156
8.184
8.196
8.172
8.156
8.188
8.18
8.168
8.14
8.168
8.168
8.148
8.152
8.172
8.192
8.176
8.16
8.164
8.176
8.18
8.16
8.164
8.184
8.172
8.144
8.128
8.14
8.184
8.164
8.224
8.26
8.284
8.244
8.284
8.328
8.344
8.328
8.292
8.26
8.26
8.24
8.228
8.216
8.224
8.2
8.168
8.16
8.164
8.172
8.16
8.172
8.144
8.148
8.168
8.18
8.172
8.2
8.18
8.128
8.096
8.02
8.076
8.332
8.68
9.264
9.864
10.516
11.1
11.332
11.428
10.9
9.604
8.468
7.968
7.808
7.916
8.036
8.144
8.236
8.264
8.244
8.24
8.224
8.196
8.224
8.244
8.228
8.232
8.248
8.24
8.232
8.24
8.252
8.256
8.252
8.24
8.256
8.284
8.264
8.264
8.24
8.248
8.3
8.3
8.288
8.328
8.304
8.332
8.316
8.324
8.34
8.392
8.36
8.38
8.384
8.436
8.424
8.468
8.492
8.56
8.544
8.592
8.604
8.652
8.676
8.732
8.76
8.836
8.884
8.888
8.936
8.984
8.996
9.004
9.032
9.052
9.02
8.992
8.94
8.884
8.828
8.748
8.66
8.632
8.576
8.504
8.444
8.396
8.348
8.284
8.264
8.268
8.284
8.24
8.24
8.22
8.232
8.208
8.188
8.18
8.216
8.22
8.196
8.216
8.22
8.22
8.228
8.216
8.244
8.236
8.228
8.212
8.228
8.232
8.216
8.228
8.236
8.256
8.24
8.224
8.228
8.228
8.204
8.196
8.224
8.244
8.236
8.224
8.2
8.236
8.196
8.216
8.18
8.208
8.232
8.208
8.192
8.192
8.192
8.2
8.188
8.212
8.216
8.176
8.192
8.2
8.208
8.204
8.192
8.192
8.208
8.204
8.176
8.168
8.18
8.184
8.192
8.184
8.192
8.176
8.184
8.184
8.204
8.168
8.18
8.188
8.196
8.188
8.212
8.164
8.18
8.18
8.188
8.172
8.184
8.204
8.232
8.256
8.256
8.276
8.32
8.38
8.392
8.368
8.336
8.288
8.248
8.256
8.232
8.244
8.232
8.208
8.204
8.204
8.16
8.152
8.204
8.196
8.172
8.184
8.184
8.2
8.176
8.184
8.208
8.16
8.092
8.02
8.096
8.392
8.792
9.42
10.02
10.708
11.244
11.38
11.392
10.64
9.248
8.244
7.844
7.748
7.856
7.996
8.116
8.252
8.304
8.228
8.224
8.252
8.256
8.24
8.248
8.236
8.264
8.24
8.24
8.236
8.276
8.26
8.252
8.28
8.292
8.3
8.24
8.276
8.296
8.284
8.284
8.296
8.336
8.316
8.332
8.332
8.332
8.332
8.376
8.356
8.42
8.412
8.42
8.428
8.432
8.484
8.5
8.528
8.556
8.6
8.604
8.632
8.692
8.744
8.756
8.796
8.836
8.892
8.964
8.936
8.964
9.036
9.048
9.048
9.084
9.088
9.024
8.96
8.888
8.836
8.784
8.7
8.62
8.58
8.528
8.468
8.4
8.376
8.336
8.332
8.304
8.28
8.276
8.252
8.212
8.224
8.252
8.244
8.244
8.212
8.228
8.248
8.204
8.216
8.252
8.228
8.224
8.244
8.232
8.252
8.228
8.232
8.232
8.248
8.26
8.24
8.232
8.26
8.248
8.22
8.244
8.244
8.244
8.24
8.232
8.22
8.24
8.24
8.228
8.212
8.24
8.236
8.208
8.22
8.216
8.232
8.192
8.22
8.228
8.244
8.204
8.2
8.204
8.208
8.196
8.208
8.224
8.22
8.196
8.212
8.212
8.232
8.148
8.208
8.208
8.216
8.196
8.204
8.204
8.184
8.224
8.176
8.196
8.22
8.212
8.2
8.22
8.18
8.168
8.172
8.132
8.224
8.204
8.236
8.284
8.288
8.276
8.312
8.376
8.412
8.424
8.356
8.32
8.3
8.296
8.264
8.232
8.224
8.256
8.228
8.184
8.168
8.208
8.18
8.18
8.18
8.192
8.212
8.188
8.18
8.188
8.204
8.188
8.136
8.06
8.06
8.264
8.568
9.156
9.844
10.488
11.14
11.4
11.5
11.044
9.788
8.532
7.928
7.704
7.728
7.912
8.052
8.208
8.28
8.236
8.24
8.256
8.228
8.236
8.256
8.264
8.276
8.24
8.248
8.268
8.244
8.232
8.248
8.264
8.268
8.252
8.268
8.28
8.26
8.264
8.264
8.308
8.32
8.312
8.28
8.32
8.324
8.32
8.328
8.344
8.368
8.364
8.384
8.384
8.416
8.412
8.44
8.472
8.508
8.532
8.512
8.552
8.604
8.652
8.676
8.728
8.784
8.824
8.824
8.856
8.9
8.96
8.96
8.968
9.008
9
8.968
8.912
8.84
8.796
8.74
8.636
8.612
8.544
8.476
8.384
8.336
8.28
8.276
8.232
8.212
8.192
8.164
8.148
8.14
8.136
8.152
8.144
8.12
8.132
8.144
8.12
8.084
8.144
8.136
8.12
8.128
8.144
8.124
8.148
8.12
8.124
8.132
8.12
8.116
8.124
8.128
8.12
8.12
8.112
8.096
8.132
8.116
8.1
8.116
8.14
8.116
8.092
8.108
8.124
8.104
8.088
8.112
8.108
8.096
8.068
8.088
8.076
8.084
8.072
8.06
8.08
8.064
8.06
8.056
8.048
8.056
8.06
8.056
8.044
8.06
8.028
8.044
8.044
8.068
8.056
8.04
8.06
8.048
8.044
8.024
8.016
8.024
8.028
8.032
8.04
8.096
8.1
8.128
8.132
8.184
8.212
8.232
8.2
8.176
8.156
8.116
8.084
8.092
8.088
8.036
8.032
7.996
8.032
8.024
8
7.992
8.028
8.012
7.992
8.012
8.016
8.004
8
7.992
7.992
7.932
7.812
7.836
8.092
8.492
9.236
9.916
10.588
11.148
11.264
11.224
10.432
9.072
8.072
7.684
7.56
7.596
7.76
7.876
7.984
8.096
8.072
8.056
8.052
8.08
8.076
8.076
8.08
8.088
8.088
8.092
8.076
8.096
8.124
8.116
8.112
8.112
8.136
8.132
8.108
8.128
8.148
8.156
8.16
8.144
8.176
8.192
8.192
8.192
8.192
8.228
8.232
8.228
8.264
8.268
8.316
8.284
8.316
8.384
8.4
8.408
8.42
8.46
8.512
8.508
8.568
8.616
8.628
8.692
8.712
8.772
8.808
8.824
8.856
8.888
8.924
8.908
8.864
8.832
8.788
8.736
8.636
8.62
8.56
8.504
8.4
8.348
8.332
8.256
8.232
8.196
8.168
8.164
8.128
8.092
8.148
8.108
8.096
8.1
8.132
8.112
8.104
8.112
8.136
8.136
8.144
8.132
8.16
8.172
8.176
8.132
8.144
8.148
8.148
8.128
8.156
8.172
8.16
8.152
8.164
8.144
8.144
8.152
8.14
8.144
8.164
8.16
8.132
8.156
8.14
8.144
